2Theta Intensity
20.0084	6936.00
20.0254	6932.00
20.0424	6927.00
20.0594	6923.00
20.0764	6919.00
20.0934	6915.00
20.1104	6910.00
20.1274	6906.00
20.1444	6902.00
20.1614	6897.00
20.1784	6893.00
20.1954	6889.00
20.2124	6885.00
20.2294	6880.00
20.2464	6876.00
20.2634	6872.00
20.2804	6868.00
20.2974	6864.00
20.3144	6859.00
20.3314	6855.00
20.3484	6851.00
20.3654	6847.00
20.3824	6843.00
20.3994	6839.00
20.4164	6835.00
20.4334	6830.00
20.4504	6826.00
20.4674	6822.00
20.4844	6818.00
20.5014	6814.00
20.5184	6810.00
20.5354	6806.00
20.5524	6802.00
20.5694	6798.00
20.5864	6794.00
20.6034	6790.00
20.6204	6786.00
20.6374	6782.00
20.6544	6778.00
20.6714	6774.00
20.6884	6770.00
20.7054	6766.00
20.7224	6762.00
20.7394	6758.00
20.7564	6754.00
20.7734	6750.00
20.7904	6746.00
20.8074	6742.00
20.8244	6739.00
20.8414	6735.00
20.8584	6731.00
20.8754	6727.00
20.8924	6723.00
20.9094	6719.00
20.9264	6716.00
20.9434	6712.00
20.9604	6708.00
20.9774	6704.00
20.9944	6700.00
21.0114	6697.00
21.0284	6693.00
21.0454	6689.00
21.0624	6686.00
21.0794	6682.00
21.0964	6678.00
21.1134	6675.00
21.1304	6671.00
21.1474	6667.00
21.1644	6664.00
21.1814	6660.00
21.1984	6656.00
21.2154	6653.00
21.2324	6649.00
21.2494	6646.00
21.2664	6642.00
21.2834	6639.00
21.3004	6635.00
21.3174	6632.00
21.3344	6628.00
21.3514	6625.00
21.3684	6621.00
21.3854	6618.00
21.4024	6614.00
21.4194	6611.00
21.4364	6608.00
21.4534	6604.00
21.4704	6601.00
21.4874	6598.00
21.5044	6594.00
21.5214	6591.00
21.5384	6588.00
21.5554	6585.00
21.5724	6581.00
21.5894	6578.00
21.6064	6575.00
21.6234	6572.00
21.6404	6569.00
21.6574	6566.00
21.6744	6563.00
21.6914	6560.00
21.7084	6557.00
21.7254	6554.00
21.7424	6551.00
21.7594	6548.00
21.7764	6545.00
21.7934	6542.00
21.8104	6539.00
21.8274	6536.00
21.8444	6534.00
21.8614	6531.00
21.8784	6528.00
21.8954	6525.00
21.9124	6523.00
21.9294	6520.00
21.9464	6518.00
21.9634	6515.00
21.9804	6513.00
21.9974	6510.00
22.0144	6508.00
22.0314	6506.00
22.0484	6503.00
22.0654	6501.00
22.0824	6499.00
22.0994	6497.00
22.1164	6495.00
22.1334	6493.00
22.1504	6491.00
22.1674	6489.00
22.1844	6487.00
22.2014	6486.00
22.2184	6484.00
22.2354	6483.00
22.2524	6481.00
22.2694	6480.00
22.2864	6479.00
22.3034	6478.00
22.3204	6477.00
22.3374	6476.00
22.3544	6476.00
22.3714	6475.00
22.3884	6475.00
22.4054	6475.00
22.4224	6476.00
22.4394	6476.00
22.4564	6477.00
22.4734	6478.00
22.4904	6480.00
22.5074	6482.00
22.5244	6484.00
22.5414	6486.00
22.5584	6489.00
22.5754	6493.00
22.5924	6496.00
22.6094	6501.00
22.6264	6505.00
22.6434	6510.00
22.6604	6515.00
22.6774	6521.00
22.6944	6527.00
22.7114	6533.00
22.7284	6540.00
22.7454	6547.00
22.7624	6554.00
22.7794	6561.00
22.7964	6569.00
22.8134	6577.00
22.8304	6585.00
22.8474	6593.00
22.8644	6602.00
22.8814	6612.00
22.8984	6622.00
22.9154	6634.00
22.9324	6647.00
22.9494	6662.00
22.9664	6679.00
22.9834	6699.00
23.0004	6722.00
23.0174	6748.00
23.0344	6778.00
23.0514	6812.00
23.0684	6851.00
23.0854	6895.00
23.1024	6945.00
23.1194	7000.00
23.1364	7062.00
23.1534	7131.00
23.1704	7207.00
23.1874	7291.00
23.2044	7382.00
23.2214	7481.00
23.2384	7588.00
23.2554	7703.00
23.2724	7826.00
23.2894	7956.00
23.3064	8093.00
23.3234	8237.00
23.3404	8386.00
23.3574	8540.00
23.3744	8698.00
23.3914	8857.00
23.4084	9018.00
23.4254	9176.00
23.4424	9331.00
23.4594	9479.00
23.4764	9617.00
23.4934	9744.00
23.5104	9855.00
23.5274	9948.00
23.5444	10020.00
23.5614	10069.00
23.5784	10094.00
23.5954	10097.00
23.6124	10077.00
23.6294	10036.00
23.6464	9976.00
23.6634	9897.00
23.6804	9803.00
23.6974	9695.00
23.7144	9575.00
23.7314	9445.00
23.7484	9308.00
23.7654	9165.00
23.7824	9018.00
23.7994	8869.00
23.8164	8720.00
23.8334	8572.00
23.8504	8425.00
23.8674	8282.00
23.8844	8142.00
23.9014	8006.00
23.9184	7876.00
23.9354	7751.00
23.9524	7631.00
23.9694	7518.00
23.9864	7411.00
24.0034	7310.00
24.0204	7215.00
24.0374	7126.00
24.0544	7043.00
24.0714	6966.00
24.0884	6895.00
24.1054	6829.00
24.1224	6768.00
24.1394	6712.00
24.1564	6660.00
24.1734	6613.00
24.1904	6569.00
24.2074	6530.00
24.2244	6493.00
24.2414	6460.00
24.2584	6430.00
24.2754	6402.00
24.2924	6376.00
24.3094	6353.00
24.3264	6331.00
24.3434	6311.00
24.3604	6293.00
24.3774	6276.00
24.3944	6260.00
24.4114	6245.00
24.4284	6231.00
24.4454	6218.00
24.4624	6206.00
24.4794	6195.00
24.4964	6184.00
24.5134	6173.00
24.5304	6164.00
24.5474	6154.00
24.5644	6145.00
24.5814	6136.00
24.5984	6128.00
24.6154	6120.00
24.6324	6112.00
24.6494	6105.00
24.6664	6097.00
24.6834	6090.00
24.7004	6083.00
24.7174	6077.00
24.7344	6070.00
24.7514	6064.00
24.7684	6058.00
24.7854	6052.00
24.8024	6046.00
24.8194	6040.00
24.8364	6034.00
24.8534	6029.00
24.8704	6023.00
24.8874	6018.00
24.9044	6012.00
24.9214	6007.00
24.9384	6002.00
24.9554	5997.00
24.9724	5992.00
24.9894	5987.00
25.0064	5983.00
25.0234	5978.00
25.0404	5973.00
25.0574	5969.00
25.0744	5964.00
25.0914	5960.00
25.1084	5956.00
25.1254	5951.00
25.1424	5947.00
25.1594	5943.00
25.1764	5939.00
25.1934	5935.00
25.2104	5931.00
25.2274	5927.00
25.2444	5923.00
25.2614	5919.00
25.2784	5915.00
25.2954	5911.00
25.3124	5908.00
25.3294	5904.00
25.3464	5900.00
25.3634	5897.00
25.3804	5893.00
25.3974	5889.00
25.4144	5886.00
25.4314	5882.00
25.4484	5879.00
25.4654	5875.00
25.4824	5872.00
25.4994	5868.00
25.5164	5865.00
25.5334	5862.00
25.5504	5858.00
25.5674	5855.00
25.5844	5852.00
25.6014	5848.00
25.6184	5845.00
25.6354	5842.00
25.6524	5839.00
25.6694	5836.00
25.6864	5832.00
25.7034	5829.00
25.7204	5826.00
25.7374	5823.00
25.7544	5820.00
25.7714	5817.00
25.7884	5814.00
25.8054	5811.00
25.8224	5808.00
25.8394	5805.00
25.8564	5802.00
25.8734	5799.00
25.8904	5796.00
25.9074	5793.00
25.9244	5790.00
25.9414	5787.00
25.9584	5784.00
25.9754	5782.00
25.9924	5779.00
26.0094	5776.00
26.0264	5773.00
26.0434	5770.00
26.0604	5767.00
26.0774	5765.00
26.0944	5762.00
26.1114	5759.00
26.1284	5756.00
26.1454	5754.00
26.1624	5751.00
26.1794	5748.00
26.1964	5745.00
26.2134	5743.00
26.2304	5740.00
26.2474	5737.00
26.2644	5735.00
26.2814	5732.00
26.2984	5729.00
26.3154	5727.00
26.3324	5724.00
26.3494	5722.00
26.3664	5719.00
26.3834	5716.00
26.4004	5714.00
26.4174	5711.00
26.4344	5709.00
26.4514	5706.00
26.4684	5704.00
26.4854	5701.00
26.5024	5699.00
26.5194	5696.00
26.5364	5694.00
26.5534	5691.00
26.5704	5689.00
26.5874	5686.00
26.6044	5684.00
26.6214	5681.00
26.6384	5679.00
26.6554	5676.00
26.6724	5674.00
26.6894	5671.00
26.7064	5669.00
26.7234	5667.00
26.7404	5664.00
26.7574	5662.00
26.7744	5659.00
26.7914	5657.00
26.8084	5655.00
26.8254	5653.00
26.8424	5650.00
26.8594	5648.00
26.8764	5646.00
26.8934	5643.00
26.9104	5641.00
26.9274	5639.00
26.9444	5636.00
26.9614	5634.00
26.9784	5632.00
26.9954	5630.00
27.0124	5627.00
27.0294	5625.00
27.0464	5623.00
27.0634	5620.00
27.0804	5618.00
27.0974	5616.00
27.1144	5614.00
27.1314	5611.00
27.1484	5609.00
27.1654	5607.00
27.1824	5605.00
27.1994	5603.00
27.2164	5600.00
27.2334	5598.00
27.2504	5596.00
27.2674	5594.00
27.2844	5592.00
27.3014	5589.00
27.3184	5587.00
27.3354	5585.00
27.3524	5583.00
27.3694	5581.00
27.3864	5579.00
27.4034	5576.00
27.4204	5574.00
27.4374	5572.00
27.4544	5570.00
27.4714	5568.00
27.4884	5566.00
27.5054	5564.00
27.5224	5562.00
27.5394	5560.00
27.5564	5558.00
27.5734	5555.00
27.5904	5553.00
27.6074	5551.00
27.6244	5549.00
27.6414	5547.00
27.6584	5545.00
27.6754	5543.00
27.6924	5541.00
27.7094	5539.00
27.7264	5537.00
27.7434	5535.00
27.7604	5533.00
27.7774	5532.00
27.7944	5530.00
27.8114	5528.00
27.8284	5526.00
27.8454	5524.00
27.8624	5522.00
27.8794	5520.00
27.8964	5518.00
27.9134	5516.00
27.9304	5514.00
27.9474	5512.00
27.9644	5510.00
27.9814	5508.00
27.9984	5507.00
28.0154	5505.00
28.0324	5503.00
28.0494	5501.00
28.0664	5499.00
28.0834	5497.00
28.1004	5496.00
28.1174	5494.00
28.1344	5492.00
28.1514	5490.00
28.1684	5489.00
28.1854	5487.00
28.2024	5485.00
28.2194	5483.00
28.2364	5482.00
28.2534	5480.00
28.2704	5478.00
28.2874	5477.00
28.3044	5475.00
28.3214	5474.00
28.3384	5472.00
28.3554	5471.00
28.3724	5469.00
28.3894	5468.00
28.4064	5467.00
28.4234	5466.00
28.4404	5464.00
28.4574	5463.00
28.4744	5462.00
28.4914	5462.00
28.5084	5461.00
28.5254	5461.00
28.5424	5460.00
28.5594	5460.00
28.5764	5460.00
28.5934	5461.00
28.6104	5462.00
28.6274	5463.00
28.6444	5464.00
28.6614	5466.00
28.6784	5468.00
28.6954	5471.00
28.7124	5474.00
28.7294	5478.00
28.7464	5482.00
28.7634	5486.00
28.7804	5491.00
28.7974	5496.00
28.8144	5502.00
28.8314	5507.00
28.8484	5513.00
28.8654	5519.00
28.8824	5525.00
28.8994	5531.00
28.9164	5536.00
28.9334	5541.00
28.9504	5544.00
28.9674	5547.00
28.9844	5549.00
29.0014	5549.00
29.0184	5548.00
29.0354	5545.00
29.0524	5541.00
29.0694	5536.00
29.0864	5530.00
29.1034	5523.00
29.1204	5515.00
29.1374	5506.00
29.1544	5497.00
29.1714	5488.00
29.1884	5479.00
29.2054	5470.00
29.2224	5461.00
29.2394	5452.00
29.2564	5443.00
29.2734	5435.00
29.2904	5427.00
29.3074	5420.00
29.3244	5413.00
29.3414	5406.00
29.3584	5400.00
29.3754	5394.00
29.3924	5389.00
29.4094	5384.00
29.4264	5380.00
29.4434	5375.00
29.4604	5372.00
29.4774	5368.00
29.4944	5365.00
29.5114	5361.00
29.5284	5358.00
29.5454	5356.00
29.5624	5353.00
29.5794	5350.00
29.5964	5348.00
29.6134	5346.00
29.6304	5340.00
29.6474	5338.00
29.6644	5336.00
29.6814	5334.00
29.6984	5330.00
29.7154	5329.00
29.7324	5327.00
29.7494	5325.00
29.7664	5323.00
29.7834	5321.00
29.8004	5319.00
29.8174	5318.00
29.8344	5316.00
29.8514	5314.00
29.8684	5313.00
29.8854	5311.00
29.9024	5309.00
29.9194	5308.00
29.9364	5306.00
29.9534	5304.00
29.9704	5303.00
29.9874	5301.00
30.0044	5300.00
30.0214	5298.00
30.0384	5296.00
30.0554	5295.00
30.0724	5293.00
30.0894	5292.00
30.1064	5290.00
30.1234	5289.00
30.1404	5287.00
30.1574	5286.00
30.1744	5284.00
30.1914	5283.00
30.2084	5281.00
30.2254	5280.00
30.2424	5278.00
30.2594	5277.00
30.2764	5275.00
30.2934	5274.00
30.3104	5273.00
30.3274	5271.00
30.3444	5270.00
30.3614	5268.00
30.3784	5267.00
30.3954	5265.00
30.4124	5264.00
30.4294	5263.00
30.4464	5261.00
30.4634	5260.00
30.4804	5259.00
30.4974	5257.00
30.5144	5256.00
30.5314	5254.00
30.5484	5253.00
30.5654	5252.00
30.5824	5250.00
30.5994	5249.00
30.6164	5248.00
30.6334	5246.00
30.6504	5245.00
30.6674	5244.00
30.6844	5242.00
30.7014	5241.00
30.7184	5240.00
30.7354	5239.00
30.7524	5237.00
30.7694	5236.00
30.7864	5235.00
30.8034	5233.00
30.8204	5232.00
30.8374	5231.00
30.8544	5230.00
30.8714	5228.00
30.8884	5227.00
30.9054	5226.00
30.9224	5225.00
30.9394	5223.00
30.9564	5222.00
30.9734	5221.00
30.9904	5220.00
31.0074	5219.00
31.0244	5218.00
31.0414	5216.00
31.0584	5215.00
31.0754	5214.00
31.0924	5213.00
31.1094	5212.00
31.1264	5211.00
31.1434	5210.00
31.1604	5209.00
31.1774	5208.00
31.1944	5207.00
31.2114	5206.00
31.2284	5205.00
31.2454	5204.00
31.2624	5203.00
31.2794	5202.00
31.2964	5201.00
31.3134	5200.00
31.3304	5199.00
31.3474	5198.00
31.3644	5197.00
31.3814	5196.00
31.3984	5195.00
31.4154	5194.00
31.4324	5193.00
31.4494	5192.00
31.4664	5191.00
31.4834	5190.00
31.5004	5189.00
31.5174	5188.00
31.5344	5187.00
31.5514	5186.00
31.5684	5185.00
31.5854	5183.00
31.6024	5182.00
31.6194	5181.00
31.6364	5180.00
31.6534	5179.00
31.6704	5178.00
31.6874	5177.00
31.7044	5176.00
31.7214	5175.00
31.7384	5174.00
31.7554	5173.00
31.7724	5172.00
31.7894	5171.00
31.8064	5170.00
31.8234	5169.00
31.8404	5168.00
31.8574	5167.00
31.8744	5166.00
31.8914	5165.00
31.9084	5165.00
31.9254	5164.00
31.9424	5163.00
31.9594	5162.00
31.9764	5162.00
31.9934	5161.00
32.0104	5160.00
32.0274	5160.00
32.0444	5159.00
32.0614	5158.00
32.0784	5158.00
32.0954	5157.00
32.1124	5157.00
32.1294	5156.00
32.1464	5156.00
32.1634	5156.00
32.1804	5155.00
32.1974	5155.00
32.2144	5155.00
32.2314	5154.00
32.2484	5154.00
32.2654	5154.00
32.2824	5154.00
32.2994	5154.00
32.3164	5154.00
32.3334	5155.00
32.3504	5155.00
32.3674	5156.00
32.3844	5156.00
32.4014	5157.00
32.4184	5158.00
32.4354	5159.00
32.4524	5160.00
32.4694	5162.00
32.4864	5164.00
32.5034	5166.00
32.5204	5168.00
32.5374	5171.00
32.5544	5174.00
32.5714	5177.00
32.5884	5181.00
32.6054	5185.00
32.6224	5190.00
32.6394	5195.00
32.6564	5201.00
32.6734	5207.00
32.6904	5214.00
32.7074	5222.00
32.7244	5230.00
32.7414	5239.00
32.7584	5249.00
32.7754	5259.00
32.7924	5270.00
32.8094	5282.00
32.8264	5294.00
32.8434	5307.00
32.8604	5320.00
32.8774	5334.00
32.8944	5349.00
32.9114	5364.00
32.9284	5380.00
32.9454	5396.00
32.9624	5412.00
32.9794	5428.00
32.9964	5444.00
33.0134	5460.00
33.0304	5475.00
33.0474	5490.00
33.0644	5505.00
33.0814	5518.00
33.0984	5530.00
33.1154	5540.00
33.1324	5549.00
33.1494	5556.00
33.1664	5562.00
33.1834	5565.00
33.2004	5566.00
33.2174	5566.00
33.2344	5563.00
33.2514	5559.00
33.2684	5554.00
33.2854	5546.00
33.3024	5538.00
33.3194	5528.00
33.3364	5517.00
33.3534	5506.00
33.3704	5493.00
33.3874	5480.00
33.4044	5467.00
33.4214	5453.00
33.4384	5440.00
33.4554	5426.00
33.4724	5412.00
33.4894	5398.00
33.5064	5385.00
33.5234	5372.00
33.5404	5359.00
33.5574	5347.00
33.5744	5336.00
33.5914	5325.00
33.6084	5315.00
33.6254	5306.00
33.6424	5297.00
33.6594	5289.00
33.6764	5282.00
33.6934	5276.00
33.7104	5270.00
33.7274	5266.00
33.7444	5262.00
33.7614	5259.00
33.7784	5257.00
33.7954	5255.00
33.8124	5254.00
33.8294	5254.00
33.8464	5255.00
33.8634	5257.00
33.8804	5259.00
33.8974	5261.00
33.9144	5264.00
33.9314	5268.00
33.9484	5272.00
33.9654	5276.00
33.9824	5280.00
33.9994	5284.00
34.0164	5288.00
34.0334	5293.00
34.0504	5296.00
34.0674	5300.00
34.0844	5303.00
34.1014	5305.00
34.1184	5306.00
34.1354	5307.00
34.1524	5307.00
34.1694	5306.00
34.1864	5304.00
34.2034	5301.00
34.2204	5297.00
34.2374	5293.00
34.2544	5288.00
34.2714	5282.00
34.2884	5276.00
34.3054	5269.00
34.3224	5262.00
34.3394	5254.00
34.3564	5246.00
34.3734	5238.00
34.3904	5229.00
34.4074	5221.00
34.4244	5212.00
34.4414	5203.00
34.4584	5195.00
34.4754	5186.00
34.4924	5177.00
34.5094	5169.00
34.5264	5161.00
34.5434	5153.00
34.5604	5145.00
34.5774	5137.00
34.5944	5130.00
34.6114	5123.00
34.6284	5116.00
34.6454	5109.00
34.6624	5103.00
34.6794	5097.00
34.6964	5091.00
34.7134	5085.00
34.7304	5080.00
34.7474	5075.00
34.7644	5070.00
34.7814	5066.00
34.7984	5061.00
34.8154	5057.00
34.8324	5053.00
34.8494	5050.00
34.8664	5046.00
34.8834	5043.00
34.9004	5040.00
34.9174	5037.00
34.9344	5034.00
34.9514	5032.00
34.9684	5029.00
34.9854	5027.00
35.0024	5025.00
35.0194	5023.00
35.0364	5021.00
35.0534	5019.00
35.0704	5017.00
35.0874	5015.00
35.1044	5014.00
35.1214	5012.00
35.1384	5011.00
35.1554	5009.00
35.1724	5008.00
35.1894	5007.00
35.2064	5005.00
35.2234	5004.00
35.2404	5003.00
35.2574	5002.00
35.2744	5001.00
35.2914	5000.00
35.3084	4999.00
35.3254	4998.00
35.3424	4998.00
35.3594	4997.00
35.3764	4996.00
35.3934	4995.00
35.4104	4995.00
35.4274	4994.00
35.4444	4994.00
35.4614	4993.00
35.4784	4993.00
35.4954	4992.00
35.5124	4992.00
35.5294	4992.00
35.5464	4991.00
35.5634	4991.00
35.5804	4991.00
35.5974	4990.00
35.6144	4990.00
35.6314	4989.00
35.6484	4989.00
35.6654	4988.00
35.6824	4987.00
35.6994	4986.00
35.7164	4986.00
35.7334	4985.00
35.7504	4984.00
35.7674	4983.00
35.7844	4982.00
35.8014	4980.00
35.8184	4979.00
35.8354	4978.00
35.8524	4977.00
35.8694	4976.00
35.8864	4974.00
35.9034	4973.00
35.9204	4972.00
35.9374	4971.00
35.9544	4970.00
35.9714	4969.00
35.9884	4968.00
36.0054	4967.00
36.0224	4966.00
36.0394	4965.00
36.0564	4964.00
36.0734	4963.00
36.0904	4962.00
36.1074	4961.00
36.1244	4961.00
36.1414	4960.00
36.1584	4959.00
36.1754	4958.00
36.1924	4958.00
36.2094	4957.00
36.2264	4956.00
36.2434	4956.00
36.2604	4955.00
36.2774	4955.00
36.2944	4954.00
36.3114	4953.00
36.3284	4953.00
36.3454	4952.00
36.3624	4952.00
36.3794	4951.00
36.3964	4950.00
36.4134	4950.00
36.4304	4949.00
36.4474	4949.00
36.4644	4948.00
36.4814	4948.00
36.4984	4947.00
36.5154	4947.00
36.5324	4946.00
36.5494	4945.00
36.5664	4945.00
36.5834	4944.00
36.6004	4944.00
36.6174	4943.00
36.6344	4943.00
36.6514	4942.00
36.6684	4942.00
36.6854	4941.00
36.7024	4941.00
36.7194	4940.00
36.7364	4940.00
36.7534	4939.00
36.7704	4939.00
36.7874	4939.00
36.8044	4938.00
36.8214	4938.00
36.8384	4937.00
36.8554	4937.00
36.8724	4936.00
36.8894	4936.00
36.9064	4935.00
36.9234	4935.00
36.9404	4935.00
36.9574	4934.00
36.9744	4934.00
36.9914	4933.00
37.0084	4933.00
37.0254	4932.00
37.0424	4932.00
37.0594	4932.00
37.0764	4931.00
37.0934	4931.00
37.1104	4930.00
37.1274	4930.00
37.1444	4930.00
37.1614	4929.00
37.1784	4929.00
37.1954	4928.00
37.2124	4928.00
37.2294	4928.00
37.2464	4927.00
37.2634	4927.00
37.2804	4927.00
37.2974	4926.00
37.3144	4926.00
37.3314	4925.00
37.3484	4925.00
37.3654	4925.00
37.3824	4924.00
37.3994	4924.00
37.4164	4924.00
37.4334	4923.00
37.4504	4923.00
37.4674	4923.00
37.4844	4923.00
37.5014	4922.00
37.5184	4922.00
37.5354	4922.00
37.5524	4921.00
37.5694	4921.00
37.5864	4921.00
37.6034	4920.00
37.6204	4920.00
37.6374	4920.00
37.6544	4920.00
37.6714	4919.00
37.6884	4919.00
37.7054	4919.00
37.7224	4919.00
37.7394	4918.00
37.7564	4918.00
37.7734	4918.00
37.7904	4918.00
37.8074	4918.00
37.8244	4918.00
37.8414	4917.00
37.8584	4917.00
37.8754	4917.00
37.8924	4917.00
37.9094	4917.00
37.9264	4917.00
37.9434	4917.00
37.9604	4917.00
37.9774	4918.00
37.9944	4918.00
38.0114	4918.00
38.0284	4918.00
38.0454	4918.00
38.0624	4919.00
38.0794	4919.00
38.0964	4920.00
38.1134	4920.00
38.1304	4920.00
38.1474	4921.00
38.1644	4921.00
38.1814	4922.00
38.1984	4922.00
38.2154	4923.00
38.2324	4923.00
38.2494	4924.00
38.2664	4924.00
38.2834	4924.00
38.3004	4924.00
38.3174	4924.00
38.3344	4924.00
38.3514	4924.00
38.3684	4923.00
38.3854	4923.00
38.4024	4923.00
38.4194	4922.00
38.4364	4921.00
38.4534	4921.00
38.4704	4920.00
38.4874	4920.00
38.5044	4919.00
38.5214	4919.00
38.5384	4918.00
38.5554	4918.00
38.5724	4917.00
38.5894	4917.00
38.6064	4916.00
38.6234	4916.00
38.6404	4916.00
38.6574	4916.00
38.6744	4916.00
38.6914	4916.00
38.7084	4916.00
38.7254	4916.00
38.7424	4916.00
38.7594	4917.00
38.7764	4917.00
38.7934	4918.00
38.8104	4918.00
38.8274	4919.00
38.8444	4920.00
38.8614	4921.00
38.8784	4922.00
38.8954	4923.00
38.9124	4924.00
38.9294	4926.00
38.9464	4927.00
38.9634	4929.00
38.9804	4930.00
38.9974	4932.00
39.0144	4934.00
39.0314	4937.00
39.0484	4939.00
39.0654	4941.00
39.0824	4944.00
39.0994	4946.00
39.1164	4949.00
39.1334	4952.00
39.1504	4955.00
39.1674	4958.00
39.1844	4961.00
39.2014	4964.00
39.2184	4968.00
39.2354	4971.00
39.2524	4975.00
39.2694	4979.00
39.2864	4983.00
39.3034	4988.00
39.3204	4993.00
39.3374	4998.00
39.3544	5004.00
39.3714	5010.00
39.3884	5016.00
39.4054	5023.00
39.4224	5030.00
39.4394	5038.00
39.4564	5046.00
39.4734	5055.00
39.4904	5064.00
39.5074	5074.00
39.5244	5083.00
39.5414	5094.00
39.5584	5104.00
39.5754	5115.00
39.5924	5126.00
39.6094	5137.00
39.6264	5148.00
39.6434	5159.00
39.6604	5171.00
39.6774	5181.00
39.6944	5192.00
39.7114	5202.00
39.7284	5212.00
39.7454	5221.00
39.7624	5229.00
39.7794	5236.00
39.7964	5242.00
39.8134	5248.00
39.8304	5251.00
39.8474	5254.00
39.8644	5256.00
39.8814	5256.00
39.8984	5256.00
39.9154	5254.00
39.9324	5252.00
39.9494	5248.00
39.9664	5243.00
39.9834	5238.00
40.0004	5231.00
40.0174	5224.00
40.0344	5217.00
40.0514	5209.00
40.0684	5200.00
40.0854	5191.00
40.1024	5182.00
40.1194	5172.00
40.1364	5163.00
40.1534	5153.00
40.1704	5143.00
40.1874	5133.00
40.2044	5123.00
40.2214	5113.00
40.2384	5103.00
40.2554	5094.00
40.2724	5084.00
40.2894	5075.00
40.3064	5066.00
40.3234	5057.00
40.3404	5049.00
40.3574	5040.00
40.3744	5032.00
40.3914	5024.00
40.4084	5017.00
40.4254	5010.00
40.4424	5003.00
40.4594	4996.00
40.4764	4990.00
40.4934	4983.00
40.5104	4978.00
40.5274	4972.00
40.5444	4967.00
40.5614	4962.00
40.5784	4957.00
40.5954	4953.00
40.6124	4949.00
40.6294	4945.00
40.6464	4941.00
40.6634	4938.00
40.6804	4935.00
40.6974	4932.00
40.7144	4929.00
40.7314	4926.00
40.7484	4924.00
40.7654	4922.00
40.7824	4920.00
40.7994	4918.00
40.8164	4916.00
40.8334	4914.00
40.8504	4912.00
40.8674	4911.00
40.8844	4910.00
40.9014	4908.00
40.9184	4907.00
40.9354	4906.00
40.9524	4905.00
40.9694	4904.00
40.9864	4903.00
41.0034	4903.00
41.0204	4902.00
41.0374	4901.00
41.0544	4901.00
41.0714	4900.00
41.0884	4900.00
41.1054	4900.00
41.1224	4899.00
41.1394	4899.00
41.1564	4899.00
41.1734	4899.00
41.1904	4899.00
41.2074	4900.00
41.2244	4900.00
41.2414	4900.00
41.2584	4901.00
41.2754	4902.00
41.2924	4902.00
41.3094	4903.00
41.3264	4904.00
41.3434	4905.00
41.3604	4907.00
41.3774	4908.00
41.3944	4910.00
41.4114	4912.00
41.4284	4913.00
41.4454	4915.00
41.4624	4917.00
41.4794	4919.00
41.4964	4921.00
41.5134	4923.00
41.5304	4925.00
41.5474	4927.00
41.5644	4929.00
41.5814	4931.00
41.5984	4932.00
41.6154	4933.00
41.6324	4934.00
41.6494	4935.00
41.6664	4936.00
41.6834	4937.00
41.7004	4937.00
41.7174	4938.00
41.7344	4938.00
41.7514	4938.00
41.7684	4938.00
41.7854	4938.00
41.8024	4938.00
41.8194	4938.00
41.8364	4938.00
41.8534	4938.00
41.8704	4938.00
41.8874	4938.00
41.9044	4938.00
41.9214	4938.00
41.9384	4937.00
41.9554	4937.00
41.9724	4937.00
41.9894	4937.00
42.0064	4936.00
42.0234	4936.00
42.0404	4935.00
42.0574	4934.00
42.0744	4934.00
42.0914	4933.00
42.1084	4932.00
42.1254	4931.00
42.1424	4930.00
42.1594	4929.00
42.1764	4927.00
42.1934	4926.00
42.2104	4925.00
42.2274	4923.00
42.2444	4922.00
42.2614	4921.00
42.2784	4919.00
42.2954	4918.00
42.3124	4916.00
42.3294	4915.00
42.3464	4913.00
42.3634	4912.00
42.3804	4911.00
42.3974	4909.00
42.4144	4908.00
42.4314	4907.00
42.4484	4905.00
42.4654	4904.00
42.4824	4903.00
42.4994	4902.00
42.5164	4901.00
42.5334	4900.00
42.5504	4900.00
42.5674	4899.00
42.5844	4898.00
42.6014	4898.00
42.6184	4897.00
42.6354	4897.00
42.6524	4897.00
42.6694	4896.00
42.6864	4896.00
42.7034	4896.00
42.7204	4896.00
42.7374	4896.00
42.7544	4896.00
42.7714	4896.00
42.7884	4896.00
42.8054	4896.00
42.8224	4896.00
42.8394	4895.00
42.8564	4895.00
42.8734	4895.00
42.8904	4894.00
42.9074	4894.00
42.9244	4893.00
42.9414	4893.00
42.9584	4892.00
42.9754	4891.00
42.9924	4890.00
43.0094	4889.00
43.0264	4888.00
43.0434	4887.00
43.0604	4887.00
43.0774	4886.00
43.0944	4885.00
43.1114	4884.00
43.1284	4883.00
43.1454	4882.00
43.1624	4882.00
43.1794	4881.00
43.1964	4880.00
43.2134	4880.00
43.2304	4879.00
43.2474	4879.00
43.2644	4878.00
43.2814	4878.00
43.2984	4878.00
43.3154	4877.00
43.3324	4877.00
43.3494	4877.00
43.3664	4876.00
43.3834	4876.00
43.4004	4876.00
43.4174	4876.00
43.4344	4876.00
43.4514	4876.00
43.4684	4876.00
43.4854	4875.00
43.5024	4875.00
43.5194	4875.00
43.5364	4875.00
43.5534	4875.00
43.5704	4875.00
43.5874	4875.00
43.6044	4875.00
43.6214	4875.00
43.6384	4875.00
43.6554	4875.00
43.6724	4875.00
43.6894	4875.00
43.7064	4875.00
43.7234	4875.00
43.7404	4875.00
43.7574	4875.00
43.7744	4875.00
43.7914	4875.00
43.8084	4875.00
43.8254	4875.00
43.8424	4875.00
43.8594	4874.00
43.8764	4874.00
43.8934	4874.00
43.9104	4875.00
43.9274	4875.00
43.9444	4875.00
43.9614	4875.00
43.9784	4875.00
43.9954	4875.00
44.0124	4875.00
44.0294	4875.00
44.0464	4875.00
44.0634	4875.00
44.0804	4875.00
44.0974	4875.00
44.1144	4875.00
44.1314	4875.00
44.1484	4875.00
44.1654	4875.00
44.1824	4875.00
44.1994	4875.00
44.2164	4875.00
44.2334	4875.00
44.2504	4875.00
44.2674	4875.00
44.2844	4875.00
44.3014	4875.00
44.3184	4875.00
44.3354	4875.00
44.3524	4875.00
44.3694	4875.00
44.3864	4875.00
44.4034	4875.00
44.4204	4875.00
44.4374	4875.00
44.4544	4876.00
44.4714	4876.00
44.4884	4876.00
44.5054	4876.00
44.5224	4876.00
44.5394	4876.00
44.5564	4876.00
44.5734	4876.00
44.5904	4876.00
44.6074	4876.00
44.6244	4876.00
44.6414	4876.00
44.6584	4876.00
44.6754	4876.00
44.6924	4876.00
44.7094	4876.00
44.7264	4876.00
44.7434	4877.00
44.7604	4877.00
44.7774	4877.00
44.7944	4877.00
44.8114	4877.00
44.8284	4877.00
44.8454	4877.00
44.8624	4878.00
44.8794	4878.00
44.8964	4878.00
44.9134	4878.00
44.9304	4878.00
44.9474	4878.00
44.9644	4878.00
44.9814	4878.00
44.9984	4878.00
45.0154	4879.00
45.0324	4879.00
45.0494	4879.00
45.0664	4879.00
45.0834	4879.00
45.1004	4879.00
45.1174	4879.00
45.1344	4879.00
45.1514	4879.00
45.1684	4879.00
45.1854	4879.00
45.2024	4880.00
45.2194	4880.00
45.2364	4880.00
45.2534	4880.00
45.2704	4880.00
45.2874	4880.00
45.3044	4880.00
45.3214	4880.00
45.3384	4880.00
45.3554	4881.00
45.3724	4881.00
45.3894	4881.00
45.4064	4881.00
45.4234	4881.00
45.4404	4881.00
45.4574	4881.00
45.4744	4881.00
45.4914	4882.00
45.5084	4882.00
45.5254	4882.00
45.5424	4882.00
45.5594	4882.00
45.5764	4882.00
45.5934	4882.00
45.6104	4882.00
45.6274	4883.00
45.6444	4883.00
45.6614	4883.00
45.6784	4883.00
45.6954	4883.00
45.7124	4883.00
45.7294	4883.00
45.7464	4884.00
45.7634	4884.00
45.7804	4884.00
45.7974	4884.00
45.8144	4884.00
45.8314	4884.00
45.8484	4884.00
45.8654	4885.00
45.8824	4885.00
45.8994	4885.00
45.9164	4885.00
45.9334	4885.00
45.9504	4886.00
45.9674	4886.00
45.9844	4886.00
46.0014	4886.00
46.0184	4886.00
46.0354	4887.00
46.0524	4887.00
46.0694	4887.00
46.0864	4887.00
46.1034	4888.00
46.1204	4888.00
46.1374	4888.00
46.1544	4888.00
46.1714	4888.00
46.1884	4889.00
46.2054	4889.00
46.2224	4889.00
46.2394	4889.00
46.2564	4890.00
46.2734	4890.00
46.2904	4890.00
46.3074	4890.00
46.3244	4891.00
46.3414	4891.00
46.3584	4891.00
46.3754	4891.00
46.3924	4892.00
46.4094	4892.00
46.4264	4893.00
46.4434	4893.00
46.4604	4893.00
46.4774	4894.00
46.4944	4894.00
46.5114	4895.00
46.5284	4895.00
46.5454	4896.00
46.5624	4896.00
46.5794	4897.00
46.5964	4897.00
46.6134	4898.00
46.6304	4899.00
46.6474	4899.00
46.6644	4900.00
46.6814	4901.00
46.6984	4902.00
46.7154	4902.00
46.7324	4903.00
46.7494	4904.00
46.7664	4905.00
46.7834	4905.00
46.8004	4906.00
46.8174	4907.00
46.8344	4907.00
46.8514	4908.00
46.8684	4908.00
46.8854	4909.00
46.9024	4909.00
46.9194	4909.00
46.9364	4910.00
46.9534	4910.00
46.9704	4910.00
46.9874	4910.00
47.0044	4911.00
47.0214	4911.00
47.0384	4911.00
47.0554	4911.00
47.0724	4911.00
47.0894	4911.00
47.1064	4912.00
47.1234	4912.00
47.1404	4912.00
47.1574	4912.00
47.1744	4913.00
47.1914	4913.00
47.2084	4914.00
47.2254	4914.00
47.2424	4915.00
47.2594	4915.00
47.2764	4916.00
47.2934	4917.00
47.3104	4918.00
47.3274	4919.00
47.3444	4920.00
47.3614	4921.00
47.3784	4922.00
47.3954	4923.00
47.4124	4925.00
47.4294	4926.00
47.4464	4928.00
47.4634	4929.00
47.4804	4931.00
47.4974	4933.00
47.5144	4935.00
47.5314	4937.00
47.5484	4940.00
47.5654	4942.00
47.5824	4945.00
47.5994	4948.00
47.6164	4951.00
47.6334	4954.00
47.6504	4958.00
47.6674	4962.00
47.6844	4966.00
47.7014	4970.00
47.7184	4975.00
47.7354	4980.00
47.7524	4985.00
47.7694	4991.00
47.7864	4997.00
47.8034	5003.00
47.8204	5010.00
47.8374	5017.00
47.8544	5025.00
47.8714	5033.00
47.8884	5042.00
47.9054	5051.00
47.9224	5060.00
47.9394	5070.00
47.9564	5080.00
47.9734	5091.00
47.9904	5103.00
48.0074	5114.00
48.0244	5127.00
48.0414	5140.00
48.0584	5153.00
48.0754	5167.00
48.0924	5181.00
48.1094	5195.00
48.1264	5210.00
48.1434	5225.00
48.1604	5240.00
48.1774	5256.00
48.1944	5271.00
48.2114	5287.00
48.2284	5303.00
48.2454	5318.00
48.2624	5333.00
48.2794	5347.00
48.2964	5362.00
48.3134	5375.00
48.3304	5387.00
48.3474	5399.00
48.3644	5409.00
48.3814	5418.00
48.3984	5426.00
48.4154	5432.00
48.4324	5436.00
48.4494	5439.00
48.4664	5441.00
48.4834	5442.00
48.5004	5441.00
48.5174	5438.00
48.5344	5435.00
48.5514	5430.00
48.5684	5425.00
48.5854	5418.00
48.6024	5410.00
48.6194	5402.00
48.6364	5392.00
48.6534	5383.00
48.6704	5372.00
48.6874	5361.00
48.7044	5350.00
48.7214	5339.00
48.7384	5327.00
48.7554	5315.00
48.7724	5303.00
48.7894	5290.00
48.8064	5278.00
48.8234	5266.00
48.8404	5253.00
48.8574	5241.00
48.8744	5229.00
48.8914	5217.00
48.9084	5205.00
48.9254	5193.00
48.9424	5182.00
48.9594	5171.00
48.9764	5160.00
48.9934	5149.00
49.0104	5139.00
49.0274	5128.00
49.0444	5118.00
49.0614	5109.00
49.0784	5100.00
49.0954	5091.00
49.1124	5082.00
49.1294	5074.00
49.1464	5066.00
49.1634	5058.00
49.1804	5050.00
49.1974	5043.00
49.2144	5036.00
49.2314	5030.00
49.2484	5024.00
49.2654	5018.00
49.2824	5012.00
49.2994	5007.00
49.3164	5002.00
49.3334	4997.00
49.3504	4992.00
49.3674	4988.00
49.3844	4984.00
49.4014	4980.00
49.4184	4977.00
49.4354	4973.00
49.4524	4970.00
49.4694	4967.00
49.4864	4964.00
49.5034	4962.00
49.5204	4959.00
49.5374	4957.00
49.5544	4955.00
49.5714	4953.00
49.5884	4951.00
49.6054	4949.00
49.6224	4947.00
49.6394	4946.00
49.6564	4945.00
49.6734	4943.00
49.6904	4942.00
49.7074	4941.00
49.7244	4940.00
49.7414	4939.00
49.7584	4939.00
49.7754	4938.00
49.7924	4937.00
49.8094	4937.00
49.8264	4936.00
49.8434	4936.00
49.8604	4936.00
49.8774	4935.00
49.8944	4935.00
49.9114	4935.00
49.9284	4935.00
49.9454	4935.00
49.9624	4935.00
49.9794	4935.00
49.9964	4935.00
50.0134	4935.00
50.0304	4935.00
50.0474	4935.00
50.0644	4935.00
50.0814	4936.00
50.0984	4936.00
50.1154	4937.00
50.1324	4937.00
50.1494	4938.00
50.1664	4939.00
50.1834	4940.00
50.2004	4941.00
50.2174	4943.00
50.2344	4944.00
50.2514	4946.00
50.2684	4948.00
50.2854	4950.00
50.3024	4952.00
50.3194	4954.00
50.3364	4956.00
50.3534	4958.00
50.3704	4960.00
50.3874	4962.00
50.4044	4963.00
50.4214	4964.00
50.4384	4966.00
50.4554	4966.00
50.4724	4967.00
50.4894	4967.00
50.5064	4966.00
50.5234	4966.00
50.5404	4964.00
50.5574	4963.00
50.5744	4961.00
50.5914	4959.00
50.6084	4957.00
50.6254	4955.00
50.6424	4953.00
50.6594	4950.00
50.6764	4948.00
50.6934	4945.00
50.7104	4943.00
50.7274	4940.00
50.7444	4938.00
50.7614	4936.00
50.7784	4934.00
50.7954	4932.00
50.8124	4930.00
50.8294	4929.00
50.8464	4927.00
50.8634	4926.00
50.8804	4924.00
50.8974	4923.00
50.9144	4922.00
50.9314	4921.00
50.9484	4921.00
50.9654	4920.00
50.9824	4920.00
50.9994	4919.00
51.0164	4919.00
51.0334	4918.00
51.0504	4918.00
51.0674	4918.00
51.0844	4917.00
51.1014	4917.00
51.1184	4917.00
51.1354	4917.00
51.1524	4917.00
51.1694	4917.00
51.1864	4917.00
51.2034	4917.00
51.2204	4917.00
51.2374	4917.00
51.2544	4917.00
51.2714	4917.00
51.2884	4917.00
51.3054	4917.00
51.3224	4917.00
51.3394	4916.00
51.3564	4916.00
51.3734	4916.00
51.3904	4916.00
51.4074	4916.00
51.4244	4916.00
51.4414	4916.00
51.4584	4916.00
51.4754	4916.00
51.4924	4916.00
51.5094	4916.00
51.5264	4916.00
51.5434	4916.00
51.5604	4916.00
51.5774	4916.00
51.5944	4916.00
51.6114	4916.00
51.6284	4916.00
51.6454	4916.00
51.6624	4916.00
51.6794	4916.00
51.6964	4916.00
51.7134	4916.00
51.7304	4916.00
51.7474	4916.00
51.7644	4916.00
51.7814	4916.00
51.7984	4916.00
51.8154	4916.00
51.8324	4916.00
51.8494	4916.00
51.8664	4916.00
51.8834	4916.00
51.9004	4916.00
51.9174	4917.00
51.9344	4917.00
51.9514	4917.00
51.9684	4917.00
51.9854	4917.00
52.0024	4917.00
52.0194	4917.00
52.0364	4918.00
52.0534	4918.00
52.0704	4918.00
52.0874	4918.00
52.1044	4918.00
52.1214	4919.00
52.1384	4919.00
52.1554	4919.00
52.1724	4919.00
52.1894	4920.00
52.2064	4920.00
52.2234	4920.00
52.2404	4920.00
52.2574	4921.00
52.2744	4921.00
52.2914	4921.00
52.3084	4922.00
52.3254	4922.00
52.3424	4922.00
52.3594	4923.00
52.3764	4923.00
52.3934	4923.00
52.4104	4924.00
52.4274	4924.00
52.4444	4925.00
52.4614	4925.00
52.4784	4925.00
52.4954	4926.00
52.5124	4926.00
52.5294	4927.00
52.5464	4927.00
52.5634	4928.00
52.5804	4929.00
52.5974	4929.00
52.6144	4930.00
52.6314	4931.00
52.6484	4931.00
52.6654	4932.00
52.6824	4933.00
52.6994	4934.00
52.7164	4934.00
52.7334	4935.00
52.7504	4936.00
52.7674	4937.00
52.7844	4938.00
52.8014	4939.00
52.8184	4941.00
52.8354	4942.00
52.8524	4943.00
52.8694	4944.00
52.8864	4946.00
52.9034	4947.00
52.9204	4949.00
52.9374	4951.00
52.9544	4953.00
52.9714	4955.00
52.9884	4957.00
53.0054	4959.00
53.0224	4962.00
53.0394	4965.00
53.0564	4967.00
53.0734	4970.00
53.0904	4974.00
53.1074	4977.00
53.1244	4981.00
53.1414	4985.00
53.1584	4989.00
53.1754	4993.00
53.1924	4998.00
53.2094	5003.00
53.2264	5008.00
53.2434	5013.00
53.2604	5019.00
53.2774	5025.00
53.2944	5032.00
53.3114	5039.00
53.3284	5046.00
53.3454	5053.00
53.3624	5061.00
53.3794	5069.00
53.3964	5078.00
53.4134	5087.00
53.4304	5096.00
53.4474	5105.00
53.4644	5115.00
53.4814	5126.00
53.4984	5136.00
53.5154	5147.00
53.5324	5159.00
53.5494	5170.00
53.5664	5182.00
53.5834	5194.00
53.6004	5207.00
53.6174	5219.00
53.6344	5232.00
53.6514	5245.00
53.6684	5258.00
53.6854	5271.00
53.7024	5284.00
53.7194	5296.00
53.7364	5309.00
53.7534	5322.00
53.7704	5334.00
53.7874	5346.00
53.8044	5358.00
53.8214	5369.00
53.8384	5379.00
53.8554	5389.00
53.8724	5399.00
53.8894	5407.00
53.9064	5415.00
53.9234	5422.00
53.9404	5428.00
53.9574	5432.00
53.9744	5436.00
53.9914	5439.00
54.0084	5441.00
54.0254	5443.00
54.0424	5443.00
54.0594	5443.00
54.0764	5442.00
54.0934	5439.00
54.1104	5437.00
54.1274	5433.00
54.1444	5429.00
54.1614	5424.00
54.1784	5418.00
54.1954	5412.00
54.2124	5406.00
54.2294	5399.00
54.2464	5392.00
54.2634	5384.00
54.2804	5376.00
54.2974	5368.00
54.3144	5359.00
54.3314	5351.00
54.3484	5342.00
54.3654	5333.00
54.3824	5324.00
54.3994	5315.00
54.4164	5306.00
54.4334	5297.00
54.4504	5289.00
54.4674	5280.00
54.4844	5272.00
54.5014	5264.00
54.5184	5257.00
54.5354	5249.00
54.5524	5242.00
54.5694	5235.00
54.5864	5229.00
54.6034	5223.00
54.6204	5217.00
54.6374	5211.00
54.6544	5206.00
54.6714	5201.00
54.6884	5197.00
54.7054	5192.00
54.7224	5188.00
54.7394	5185.00
54.7564	5181.00
54.7734	5178.00
54.7904	5175.00
54.8074	5173.00
54.8244	5171.00
54.8414	5170.00
54.8584	5168.00
54.8754	5167.00
54.8924	5167.00
54.9094	5167.00
54.9264	5167.00
54.9434	5167.00
54.9604	5168.00
54.9774	5169.00
54.9944	5171.00
55.0114	5173.00
55.0284	5175.00
55.0454	5177.00
55.0624	5179.00
55.0794	5181.00
55.0964	5184.00
55.1134	5187.00
55.1304	5189.00
55.1474	5192.00
55.1644	5194.00
55.1814	5196.00
55.1984	5198.00
55.2154	5200.00
55.2324	5202.00
55.2494	5203.00
55.2664	5204.00
55.2834	5204.00
55.3004	5204.00
55.3174	5204.00
55.3344	5203.00
55.3514	5202.00
55.3684	5200.00
55.3854	5198.00
55.4024	5196.00
55.4194	5193.00
55.4364	5190.00
55.4534	5187.00
55.4704	5183.00
55.4874	5179.00
55.5044	5175.00
55.5214	5170.00
55.5384	5165.00
55.5554	5160.00
55.5724	5155.00
55.5894	5149.00
55.6064	5144.00
55.6234	5138.00
55.6404	5132.00
55.6574	5126.00
55.6744	5120.00
55.6914	5114.00
55.7084	5108.00
55.7254	5102.00
55.7424	5096.00
55.7594	5089.00
55.7764	5083.00
55.7934	5077.00
55.8104	5071.00
55.8274	5065.00
55.8444	5059.00
55.8614	5053.00
55.8784	5048.00
55.8954	5042.00
55.9124	5037.00
55.9294	5031.00
55.9464	5026.00
55.9634	5021.00
55.9804	5016.00
55.9974	5011.00
56.0144	5006.00
56.0314	5001.00
56.0484	4997.00
56.0654	4992.00
56.0824	4988.00
56.0994	4984.00
56.1164	4980.00
56.1334	4976.00
56.1504	4972.00
56.1674	4968.00
56.1844	4965.00
56.2014	4962.00
56.2184	4958.00
56.2354	4955.00
56.2524	4952.00
56.2694	4949.00
56.2864	4947.00
56.3034	4944.00
56.3204	4941.00
56.3374	4939.00
56.3544	4937.00
56.3714	4934.00
56.3884	4932.00
56.4054	4930.00
56.4224	4928.00
56.4394	4926.00
56.4564	4925.00
56.4734	4923.00
56.4904	4921.00
56.5074	4920.00
56.5244	4918.00
56.5414	4917.00
56.5584	4915.00
56.5754	4914.00
56.5924	4913.00
56.6094	4911.00
56.6264	4910.00
56.6434	4909.00
56.6604	4908.00
56.6774	4907.00
56.6944	4906.00
56.7114	4905.00
56.7284	4904.00
56.7454	4903.00
56.7624	4902.00
56.7794	4902.00
56.7964	4901.00
56.8134	4900.00
56.8304	4899.00
56.8474	4899.00
56.8644	4898.00
56.8814	4897.00
56.8984	4897.00
56.9154	4896.00
56.9324	4895.00
56.9494	4895.00
56.9664	4894.00
56.9834	4894.00
57.0004	4893.00
57.0174	4893.00
57.0344	4892.00
57.0514	4892.00
57.0684	4891.00
57.0854	4891.00
57.1024	4890.00
57.1194	4890.00
57.1364	4889.00
57.1534	4889.00
57.1704	4888.00
57.1874	4888.00
57.2044	4887.00
57.2214	4887.00
57.2384	4887.00
57.2554	4886.00
57.2724	4886.00
57.2894	4885.00
57.3064	4885.00
57.3234	4885.00
57.3404	4884.00
57.3574	4884.00
57.3744	4884.00
57.3914	4883.00
57.4084	4883.00
57.4254	4883.00
57.4424	4882.00
57.4594	4882.00
57.4764	4882.00
57.4934	4881.00
57.5104	4881.00
57.5274	4881.00
57.5444	4881.00
57.5614	4880.00
57.5784	4880.00
57.5954	4880.00
57.6124	4880.00
57.6294	4879.00
57.6464	4879.00
57.6634	4879.00
57.6804	4879.00
57.6974	4879.00
57.7144	4878.00
57.7314	4878.00
57.7484	4878.00
57.7654	4878.00
57.7824	4878.00
57.7994	4878.00
57.8164	4878.00
57.8334	4878.00
57.8504	4878.00
57.8674	4878.00
57.8844	4878.00
57.9014	4878.00
57.9184	4878.00
57.9354	4878.00
57.9524	4878.00
57.9694	4878.00
57.9864	4878.00
58.0034	4878.00
58.0204	4879.00
58.0374	4879.00
58.0544	4879.00
58.0714	4879.00
58.0884	4880.00
58.1054	4880.00
58.1224	4880.00
58.1394	4881.00
58.1564	4881.00
58.1734	4882.00
58.1904	4882.00
58.2074	4883.00
58.2244	4883.00
58.2414	4884.00
58.2584	4884.00
58.2754	4885.00
58.2924	4886.00
58.3094	4886.00
58.3264	4887.00
58.3434	4888.00
58.3604	4889.00
58.3774	4889.00
58.3944	4890.00
58.4114	4891.00
58.4284	4892.00
58.4454	4893.00
58.4624	4894.00
58.4794	4895.00
58.4964	4896.00
58.5134	4897.00
58.5304	4898.00
58.5474	4899.00
58.5644	4900.00
58.5814	4901.00
58.5984	4902.00
58.6154	4903.00
58.6324	4904.00
58.6494	4905.00
58.6664	4905.00
58.6834	4906.00
58.7004	4907.00
58.7174	4908.00
58.7344	4908.00
58.7514	4909.00
58.7684	4909.00
58.7854	4909.00
58.8024	4910.00
58.8194	4910.00
58.8364	4910.00
58.8534	4910.00
58.8704	4910.00
58.8874	4910.00
58.9044	4910.00
58.9214	4909.00
58.9384	4909.00
58.9554	4909.00
58.9724	4908.00
58.9894	4907.00
59.0064	4907.00
59.0234	4906.00
59.0404	4905.00
59.0574	4905.00
59.0744	4904.00
59.0914	4903.00
59.1084	4902.00
59.1254	4901.00
59.1424	4900.00
59.1594	4899.00
59.1764	4898.00
59.1934	4897.00
59.2104	4896.00
59.2274	4895.00
59.2444	4893.00
59.2614	4892.00
59.2784	4891.00
59.2954	4890.00
59.3124	4889.00
59.3294	4888.00
59.3464	4887.00
59.3634	4886.00
59.3804	4885.00
59.3974	4884.00
59.4144	4883.00
59.4314	4882.00
59.4484	4881.00
59.4654	4880.00
59.4824	4879.00
59.4994	4879.00
59.5164	4878.00
59.5334	4877.00
59.5504	4877.00
59.5674	4876.00
59.5844	4875.00
59.6014	4875.00
59.6184	4874.00
59.6354	4874.00
59.6524	4874.00
59.6694	4874.00
59.6864	4873.00
59.7034	4873.00
59.7204	4873.00
59.7374	4873.00
59.7544	4873.00
59.7714	4874.00
59.7884	4874.00
59.8054	4874.00
59.8224	4875.00
59.8394	4875.00
59.8564	4876.00
59.8734	4877.00
59.8904	4878.00
59.9074	4879.00
59.9244	4880.00
59.9414	4882.00
59.9584	4883.00
59.9754	4885.00
59.9924	4886.00
60.0094	4888.00
60.0264	4890.00
60.0434	4892.00
60.0604	4895.00
60.0774	4897.00
60.0944	4899.00
60.1114	4902.00
60.1284	4905.00
60.1454	4907.00
60.1624	4910.00
60.1794	4913.00
60.1964	4915.00
60.2134	4918.00
60.2304	4921.00
60.2474	4924.00
60.2644	4926.00
60.2814	4929.00
60.2984	4932.00
60.3154	4935.00
60.3324	4937.00
60.3494	4940.00
60.3664	4942.00
60.3834	4945.00
60.4004	4948.00
60.4174	4950.00
60.4344	4953.00
60.4514	4955.00
60.4684	4958.00
60.4854	4961.00
60.5024	4963.00
60.5194	4966.00
60.5364	4968.00
60.5534	4971.00
60.5704	4973.00
60.5874	4976.00
60.6044	4978.00
60.6214	4981.00
60.6384	4983.00
60.6554	4985.00
60.6724	4988.00
60.6894	4990.00
60.7064	4992.00
60.7234	4994.00
60.7404	4995.00
60.7574	4997.00
60.7744	4999.00
60.7914	5000.00
60.8084	5002.00
60.8254	5003.00
60.8424	5005.00
60.8594	5006.00
60.8764	5007.00
60.8934	5008.00
60.9104	5009.00
60.9274	5010.00
60.9444	5011.00
60.9614	5012.00
60.9784	5013.00
60.9954	5013.00
61.0124	5014.00
61.0294	5014.00
61.0464	5015.00
61.0634	5015.00
61.0804	5015.00
61.0974	5015.00
61.1144	5015.00
61.1314	5015.00
61.1484	5015.00
61.1654	5015.00
61.1824	5015.00
61.1994	5014.00
61.2164	5014.00
61.2334	5013.00
61.2504	5012.00
61.2674	5011.00
61.2844	5010.00
61.3014	5008.00
61.3184	5007.00
61.3354	5005.00
61.3524	5003.00
61.3694	5001.00
61.3864	4999.00
61.4034	4996.00
61.4204	4994.00
61.4374	4991.00
61.4544	4988.00
61.4714	4985.00
61.4884	4982.00
61.5054	4979.00
61.5224	4975.00
61.5394	4972.00
61.5564	4968.00
61.5734	4965.00
61.5904	4961.00
61.6074	4958.00
61.6244	4954.00
61.6414	4950.00
61.6584	4946.00
61.6754	4943.00
61.6924	4939.00
61.7094	4935.00
61.7264	4931.00
61.7434	4927.00
61.7604	4924.00
61.7774	4920.00
61.7944	4916.00
61.8114	4912.00
61.8284	4909.00
61.8454	4905.00
61.8624	4902.00
61.8794	4898.00
61.8964	4895.00
61.9134	4892.00
61.9304	4888.00
61.9474	4885.00
61.9644	4882.00
61.9814	4879.00
61.9984	4876.00
62.0154	4873.00
62.0324	4870.00
62.0494	4867.00
62.0664	4864.00
62.0834	4862.00
62.1004	4859.00
62.1174	4856.00
62.1344	4854.00
62.1514	4851.00
62.1684	4849.00
62.1854	4847.00
62.2024	4845.00
62.2194	4842.00
62.2364	4840.00
62.2534	4838.00
62.2704	4836.00
62.2874	4834.00
62.3044	4833.00
62.3214	4831.00
62.3384	4829.00
62.3554	4827.00
62.3724	4826.00
62.3894	4824.00
62.4064	4823.00
62.4234	4821.00
62.4404	4820.00
62.4574	4818.00
62.4744	4817.00
62.4914	4816.00
62.5084	4815.00
62.5254	4813.00
62.5424	4812.00
62.5594	4811.00
62.5764	4810.00
62.5934	4809.00
62.6104	4808.00
62.6274	4807.00
62.6444	4806.00
62.6614	4805.00
62.6784	4804.00
62.6954	4804.00
62.7124	4803.00
62.7294	4802.00
62.7464	4801.00
62.7634	4801.00
62.7804	4800.00
62.7974	4799.00
62.8144	4799.00
62.8314	4798.00
62.8484	4798.00
62.8654	4797.00
62.8824	4797.00
62.8994	4796.00
62.9164	4796.00
62.9334	4795.00
62.9504	4795.00
62.9674	4794.00
62.9844	4794.00
63.0014	4794.00
63.0184	4794.00
63.0354	4793.00
63.0524	4793.00
63.0694	4793.00
63.0864	4793.00
63.1034	4792.00
63.1204	4792.00
63.1374	4792.00
63.1544	4791.00
63.1714	4791.00
63.1884	4791.00
63.2054	4790.00
63.2224	4790.00
63.2394	4790.00
63.2564	4789.00
63.2734	4789.00
63.2904	4788.00
63.3074	4788.00
63.3244	4787.00
63.3414	4787.00
63.3584	4786.00
63.3754	4785.00
63.3924	4785.00
63.4094	4784.00
63.4264	4784.00
63.4434	4783.00
63.4604	4783.00
63.4774	4782.00
63.4944	4782.00
63.5114	4781.00
63.5284	4781.00
63.5454	4780.00
63.5624	4780.00
63.5794	4780.00
63.5964	4779.00
63.6134	4779.00
63.6304	4779.00
63.6474	4778.00
63.6644	4778.00
63.6814	4778.00
63.6984	4777.00
63.7154	4777.00
63.7324	4777.00
63.7494	4777.00
63.7664	4777.00
63.7834	4777.00
63.8004	4777.00
63.8174	4777.00
63.8344	4777.00
63.8514	4777.00
63.8684	4777.00
63.8854	4777.00
63.9024	4777.00
63.9194	4777.00
63.9364	4777.00
63.9534	4777.00
63.9704	4777.00
63.9874	4777.00
64.0044	4778.00
64.0214	4778.00
64.0384	4778.00
64.0554	4778.00
64.0724	4778.00
64.0894	4779.00
64.1064	4779.00
64.1234	4779.00
64.1404	4779.00
64.1574	4779.00
64.1744	4779.00
64.1914	4779.00
64.2084	4779.00
64.2254	4779.00
64.2424	4779.00
64.2594	4779.00
64.2764	4779.00
64.2934	4779.00
64.3104	4779.00
64.3274	4778.00
64.3444	4778.00
64.3614	4778.00
64.3784	4778.00
64.3954	4778.00
64.4124	4778.00
64.4294	4777.00
64.4464	4777.00
64.4634	4777.00
64.4804	4777.00
64.4974	4777.00
64.5144	4776.00
64.5314	4776.00
64.5484	4776.00
64.5654	4776.00
64.5824	4775.00
64.5994	4775.00
64.6164	4775.00
64.6334	4774.00
64.6504	4774.00
64.6674	4774.00
64.6844	4773.00
64.7014	4773.00
64.7184	4773.00
64.7354	4772.00
64.7524	4772.00
64.7694	4771.00
64.7864	4771.00
64.8034	4770.00
64.8204	4770.00
64.8374	4769.00
64.8544	4769.00
64.8714	4768.00
64.8884	4768.00
64.9054	4767.00
64.9224	4767.00
64.9394	4766.00
64.9564	4766.00
64.9734	4765.00
64.9904	4765.00
65.0074	4764.00
65.0244	4764.00
65.0414	4763.00
65.0584	4763.00
65.0754	4762.00
65.0924	4762.00
65.1094	4761.00
65.1264	4760.00
65.1434	4760.00
65.1604	4759.00
65.1774	4759.00
65.1944	4758.00
65.2114	4758.00
65.2284	4758.00
65.2454	4757.00
65.2624	4757.00
65.2794	4756.00
65.2964	4756.00
65.3134	4755.00
65.3304	4755.00
65.3474	4754.00
65.3644	4754.00
65.3814	4754.00
65.3984	4753.00
65.4154	4753.00
65.4324	4753.00
65.4494	4752.00
65.4664	4752.00
65.4834	4752.00
65.5004	4752.00
65.5174	4752.00
65.5344	4751.00
65.5514	4751.00
65.5684	4751.00
65.5854	4751.00
65.6024	4751.00
65.6194	4752.00
65.6364	4752.00
65.6534	4752.00
65.6704	4752.00
65.6874	4753.00
65.7044	4753.00
65.7214	4753.00
65.7384	4754.00
65.7554	4755.00
65.7724	4755.00
65.7894	4756.00
65.8064	4757.00
65.8234	4757.00
65.8404	4758.00
65.8574	4759.00
65.8744	4759.00
65.8914	4760.00
65.9084	4761.00
65.9254	4761.00
65.9424	4761.00
65.9594	4762.00
65.9764	4762.00
65.9934	4762.00
66.0104	4762.00
66.0274	4762.00
66.0444	4761.00
66.0614	4761.00
66.0784	4760.00
66.0954	4759.00
66.1124	4759.00
66.1294	4758.00
66.1464	4757.00
66.1634	4756.00
66.1804	4755.00
66.1974	4754.00
66.2144	4753.00
66.2314	4752.00
66.2484	4751.00
66.2654	4750.00
66.2824	4749.00
66.2994	4748.00
66.3164	4747.00
66.3334	4746.00
66.3504	4745.00
66.3674	4744.00
66.3844	4744.00
66.4014	4743.00
66.4184	4743.00
66.4354	4742.00
66.4524	4742.00
66.4694	4742.00
66.4864	4741.00
66.5034	4741.00
66.5204	4741.00
66.5374	4741.00
66.5544	4741.00
66.5714	4741.00
66.5884	4741.00
66.6054	4741.00
66.6224	4742.00
66.6394	4742.00
66.6564	4742.00
66.6734	4743.00
66.6904	4743.00
66.7074	4743.00
66.7244	4743.00
66.7414	4744.00
66.7584	4744.00
66.7754	4744.00
66.7924	4744.00
66.8094	4744.00
66.8264	4744.00
66.8434	4744.00
66.8604	4743.00
66.8774	4743.00
66.8944	4743.00
66.9114	4742.00
66.9284	4742.00
66.9454	4742.00
66.9624	4741.00
66.9794	4741.00
66.9964	4740.00
67.0134	4740.00
67.0304	4739.00
67.0474	4739.00
67.0644	4738.00
67.0814	4738.00
67.0984	4737.00
67.1154	4737.00
67.1324	4736.00
67.1494	4736.00
67.1664	4735.00
67.1834	4735.00
67.2004	4735.00
67.2174	4734.00
67.2344	4734.00
67.2514	4734.00
67.2684	4733.00
67.2854	4733.00
67.3024	4733.00
67.3194	4733.00
67.3364	4733.00
67.3534	4732.00
67.3704	4732.00
67.3874	4732.00
67.4044	4732.00
67.4214	4732.00
67.4384	4732.00
67.4554	4732.00
67.4724	4732.00
67.4894	4732.00
67.5064	4732.00
67.5234	4732.00
67.5404	4731.00
67.5574	4731.00
67.5744	4731.00
67.5914	4731.00
67.6084	4731.00
67.6254	4731.00
67.6424	4731.00
67.6594	4731.00
67.6764	4731.00
67.6934	4731.00
67.7104	4731.00
67.7274	4731.00
67.7444	4731.00
67.7614	4731.00
67.7784	4732.00
67.7954	4732.00
67.8124	4732.00
67.8294	4732.00
67.8464	4732.00
67.8634	4732.00
67.8804	4732.00
67.8974	4732.00
67.9144	4732.00
67.9314	4732.00
67.9484	4732.00
67.9654	4732.00
67.9824	4732.00
67.9994	4732.00
68.0164	4732.00
68.0334	4732.00
68.0504	4733.00
68.0674	4733.00
68.0844	4733.00
68.1014	4733.00
68.1184	4733.00
68.1354	4733.00
68.1524	4733.00
68.1694	4733.00
68.1864	4733.00
68.2034	4734.00
68.2204	4734.00
68.2374	4734.00
68.2544	4734.00
68.2714	4734.00
68.2884	4734.00
68.3054	4735.00
68.3224	4735.00
68.3394	4735.00
68.3564	4735.00
68.3734	4735.00
68.3904	4736.00
68.4074	4736.00
68.4244	4736.00
68.4414	4736.00
68.4584	4737.00
68.4754	4737.00
68.4924	4737.00
68.5094	4737.00
68.5264	4738.00
68.5434	4738.00
68.5604	4738.00
68.5774	4739.00
68.5944	4739.00
68.6114	4739.00
68.6284	4740.00
68.6454	4740.00
68.6624	4741.00
68.6794	4741.00
68.6964	4742.00
68.7134	4742.00
68.7304	4743.00
68.7474	4743.00
68.7644	4744.00
68.7814	4744.00
68.7984	4745.00
68.8154	4745.00
68.8324	4746.00
68.8494	4747.00
68.8664	4747.00
68.8834	4748.00
68.9004	4749.00
68.9174	4750.00
68.9344	4751.00
68.9514	4751.00
68.9684	4752.00
68.9854	4753.00
69.0024	4754.00
69.0194	4755.00
69.0364	4756.00
69.0534	4757.00
69.0704	4758.00
69.0874	4760.00
69.1044	4761.00
69.1214	4762.00
69.1384	4763.00
69.1554	4765.00
69.1724	4766.00
69.1894	4767.00
69.2064	4769.00
69.2234	4770.00
69.2404	4772.00
69.2574	4773.00
69.2744	4775.00
69.2914	4776.00
69.3084	4778.00
69.3254	4780.00
69.3424	4781.00
69.3594	4783.00
69.3764	4785.00
69.3934	4787.00
69.4104	4788.00
69.4274	4790.00
69.4444	4792.00
69.4614	4794.00
69.4784	4796.00
69.4954	4798.00
69.5124	4800.00
69.5294	4802.00
69.5464	4804.00
69.5634	4806.00
69.5804	4808.00
69.5974	4810.00
69.6144	4812.00
69.6314	4814.00
69.6484	4815.00
69.6654	4817.00
69.6824	4819.00
69.6994	4821.00
69.7164	4823.00
69.7334	4824.00
69.7504	4826.00
69.7674	4827.00
69.7844	4829.00
69.8014	4830.00
69.8184	4832.00
69.8354	4833.00
69.8524	4834.00
69.8694	4835.00
69.8864	4836.00
69.9034	4837.00
69.9204	4838.00
69.9374	4838.00
69.9544	4839.00
69.9714	4839.00
69.9884	4840.00
