2Theta Intensity
20.0084	6925.00
20.0254	6920.00
20.0424	6916.00
20.0594	6911.00
20.0764	6907.00
20.0934	6903.00
20.1104	6898.00
20.1274	6894.00
20.1444	6889.00
20.1614	6885.00
20.1784	6881.00
20.1954	6876.00
20.2124	6872.00
20.2294	6868.00
20.2464	6863.00
20.2634	6859.00
20.2804	6855.00
20.2974	6850.00
20.3144	6846.00
20.3314	6842.00
20.3484	6837.00
20.3654	6833.00
20.3824	6829.00
20.3994	6824.00
20.4164	6820.00
20.4334	6816.00
20.4504	6812.00
20.4674	6807.00
20.4844	6803.00
20.5014	6799.00
20.5184	6795.00
20.5354	6790.00
20.5524	6786.00
20.5694	6782.00
20.5864	6778.00
20.6034	6774.00
20.6204	6769.00
20.6374	6765.00
20.6544	6761.00
20.6714	6757.00
20.6884	6753.00
20.7054	6748.00
20.7224	6744.00
20.7394	6740.00
20.7564	6736.00
20.7734	6732.00
20.7904	6728.00
20.8074	6724.00
20.8244	6720.00
20.8414	6716.00
20.8584	6711.00
20.8754	6707.00
20.8924	6703.00
20.9094	6699.00
20.9264	6695.00
20.9434	6691.00
20.9604	6687.00
20.9774	6683.00
20.9944	6679.00
21.0114	6675.00
21.0284	6671.00
21.0454	6667.00
21.0624	6663.00
21.0794	6659.00
21.0964	6655.00
21.1134	6651.00
21.1304	6647.00
21.1474	6643.00
21.1644	6639.00
21.1814	6635.00
21.1984	6631.00
21.2154	6627.00
21.2324	6623.00
21.2494	6619.00
21.2664	6615.00
21.2834	6611.00
21.3004	6608.00
21.3174	6604.00
21.3344	6600.00
21.3514	6596.00
21.3684	6592.00
21.3854	6588.00
21.4024	6584.00
21.4194	6580.00
21.4364	6577.00
21.4534	6573.00
21.4704	6569.00
21.4874	6565.00
21.5044	6561.00
21.5214	6557.00
21.5384	6554.00
21.5554	6550.00
21.5724	6546.00
21.5894	6542.00
21.6064	6539.00
21.6234	6535.00
21.6404	6531.00
21.6574	6527.00
21.6744	6524.00
21.6914	6520.00
21.7084	6516.00
21.7254	6512.00
21.7424	6509.00
21.7594	6505.00
21.7764	6501.00
21.7934	6498.00
21.8104	6494.00
21.8274	6490.00
21.8444	6487.00
21.8614	6483.00
21.8784	6479.00
21.8954	6476.00
21.9124	6472.00
21.9294	6468.00
21.9464	6465.00
21.9634	6461.00
21.9804	6458.00
21.9974	6454.00
22.0144	6450.00
22.0314	6447.00
22.0484	6443.00
22.0654	6440.00
22.0824	6436.00
22.0994	6433.00
22.1164	6429.00
22.1334	6426.00
22.1504	6422.00
22.1674	6419.00
22.1844	6416.00
22.2014	6412.00
22.2184	6409.00
22.2354	6406.00
22.2524	6402.00
22.2694	6399.00
22.2864	6396.00
22.3034	6393.00
22.3204	6390.00
22.3374	6387.00
22.3544	6384.00
22.3714	6381.00
22.3884	6378.00
22.4054	6376.00
22.4224	6373.00
22.4394	6371.00
22.4564	6369.00
22.4734	6367.00
22.4904	6365.00
22.5074	6364.00
22.5244	6362.00
22.5414	6361.00
22.5584	6360.00
22.5754	6359.00
22.5924	6359.00
22.6094	6358.00
22.6264	6358.00
22.6434	6358.00
22.6604	6358.00
22.6774	6358.00
22.6944	6358.00
22.7114	6358.00
22.7284	6358.00
22.7454	6357.00
22.7624	6357.00
22.7794	6356.00
22.7964	6354.00
22.8134	6352.00
22.8304	6349.00
22.8474	6346.00
22.8644	6342.00
22.8814	6338.00
22.8984	6332.00
22.9154	6327.00
22.9324	6321.00
22.9494	6314.00
22.9664	6308.00
22.9834	6301.00
23.0004	6295.00
23.0174	6288.00
23.0344	6281.00
23.0514	6274.00
23.0684	6268.00
23.0854	6262.00
23.1024	6256.00
23.1194	6250.00
23.1364	6244.00
23.1534	6238.00
23.1704	6233.00
23.1874	6228.00
23.2044	6223.00
23.2214	6218.00
23.2384	6213.00
23.2554	6209.00
23.2724	6205.00
23.2894	6201.00
23.3064	6197.00
23.3234	6193.00
23.3404	6189.00
23.3574	6185.00
23.3744	6181.00
23.3914	6178.00
23.4084	6174.00
23.4254	6171.00
23.4424	6167.00
23.4594	6164.00
23.4764	6160.00
23.4934	6157.00
23.5104	6154.00
23.5274	6150.00
23.5444	6147.00
23.5614	6144.00
23.5784	6140.00
23.5954	6137.00
23.6124	6134.00
23.6294	6131.00
23.6464	6128.00
23.6634	6124.00
23.6804	6121.00
23.6974	6118.00
23.7144	6115.00
23.7314	6112.00
23.7484	6109.00
23.7654	6106.00
23.7824	6102.00
23.7994	6099.00
23.8164	6096.00
23.8334	6093.00
23.8504	6090.00
23.8674	6087.00
23.8844	6084.00
23.9014	6081.00
23.9184	6078.00
23.9354	6075.00
23.9524	6072.00
23.9694	6069.00
23.9864	6066.00
24.0034	6063.00
24.0204	6060.00
24.0374	6057.00
24.0544	6054.00
24.0714	6051.00
24.0884	6048.00
24.1054	6045.00
24.1224	6042.00
24.1394	6039.00
24.1564	6036.00
24.1734	6033.00
24.1904	6030.00
24.2074	6027.00
24.2244	6024.00
24.2414	6021.00
24.2584	6018.00
24.2754	6015.00
24.2924	6012.00
24.3094	6009.00
24.3264	6006.00
24.3434	6003.00
24.3604	6001.00
24.3774	5998.00
24.3944	5995.00
24.4114	5992.00
24.4284	5989.00
24.4454	5986.00
24.4624	5983.00
24.4794	5980.00
24.4964	5978.00
24.5134	5975.00
24.5304	5972.00
24.5474	5969.00
24.5644	5966.00
24.5814	5964.00
24.5984	5961.00
24.6154	5958.00
24.6324	5955.00
24.6494	5952.00
24.6664	5950.00
24.6834	5947.00
24.7004	5944.00
24.7174	5941.00
24.7344	5939.00
24.7514	5936.00
24.7684	5933.00
24.7854	5930.00
24.8024	5928.00
24.8194	5925.00
24.8364	5922.00
24.8534	5919.00
24.8704	5917.00
24.8874	5914.00
24.9044	5911.00
24.9214	5908.00
24.9384	5906.00
24.9554	5903.00
24.9724	5900.00
24.9894	5898.00
25.0064	5895.00
25.0234	5892.00
25.0404	5890.00
25.0574	5887.00
25.0744	5884.00
25.0914	5882.00
25.1084	5879.00
25.1254	5876.00
25.1424	5874.00
25.1594	5871.00
25.1764	5868.00
25.1934	5866.00
25.2104	5863.00
25.2274	5860.00
25.2444	5858.00
25.2614	5855.00
25.2784	5853.00
25.2954	5850.00
25.3124	5847.00
25.3294	5845.00
25.3464	5842.00
25.3634	5840.00
25.3804	5837.00
25.3974	5834.00
25.4144	5832.00
25.4314	5829.00
25.4484	5827.00
25.4654	5824.00
25.4824	5822.00
25.4994	5819.00
25.5164	5817.00
25.5334	5814.00
25.5504	5811.00
25.5674	5809.00
25.5844	5806.00
25.6014	5804.00
25.6184	5801.00
25.6354	5799.00
25.6524	5796.00
25.6694	5794.00
25.6864	5791.00
25.7034	5789.00
25.7204	5786.00
25.7374	5784.00
25.7544	5781.00
25.7714	5779.00
25.7884	5776.00
25.8054	5774.00
25.8224	5772.00
25.8394	5769.00
25.8564	5767.00
25.8734	5764.00
25.8904	5762.00
25.9074	5759.00
25.9244	5757.00
25.9414	5754.00
25.9584	5752.00
25.9754	5750.00
25.9924	5747.00
26.0094	5745.00
26.0264	5742.00
26.0434	5740.00
26.0604	5738.00
26.0774	5735.00
26.0944	5733.00
26.1114	5731.00
26.1284	5728.00
26.1454	5726.00
26.1624	5723.00
26.1794	5721.00
26.1964	5719.00
26.2134	5716.00
26.2304	5714.00
26.2474	5712.00
26.2644	5709.00
26.2814	5707.00
26.2984	5705.00
26.3154	5702.00
26.3324	5700.00
26.3494	5698.00
26.3664	5695.00
26.3834	5693.00
26.4004	5691.00
26.4174	5688.00
26.4344	5686.00
26.4514	5684.00
26.4684	5682.00
26.4854	5679.00
26.5024	5677.00
26.5194	5675.00
26.5364	5673.00
26.5534	5670.00
26.5704	5668.00
26.5874	5666.00
26.6044	5664.00
26.6214	5661.00
26.6384	5659.00
26.6554	5657.00
26.6724	5655.00
26.6894	5652.00
26.7064	5650.00
26.7234	5648.00
26.7404	5646.00
26.7574	5644.00
26.7744	5641.00
26.7914	5639.00
26.8084	5637.00
26.8254	5635.00
26.8424	5633.00
26.8594	5630.00
26.8764	5628.00
26.8934	5626.00
26.9104	5624.00
26.9274	5622.00
26.9444	5620.00
26.9614	5617.00
26.9784	5615.00
26.9954	5613.00
27.0124	5611.00
27.0294	5609.00
27.0464	5607.00
27.0634	5605.00
27.0804	5603.00
27.0974	5600.00
27.1144	5598.00
27.1314	5596.00
27.1484	5594.00
27.1654	5592.00
27.1824	5590.00
27.1994	5588.00
27.2164	5586.00
27.2334	5584.00
27.2504	5582.00
27.2674	5580.00
27.2844	5577.00
27.3014	5575.00
27.3184	5573.00
27.3354	5571.00
27.3524	5569.00
27.3694	5567.00
27.3864	5565.00
27.4034	5563.00
27.4204	5561.00
27.4374	5559.00
27.4544	5557.00
27.4714	5555.00
27.4884	5553.00
27.5054	5551.00
27.5224	5549.00
27.5394	5547.00
27.5564	5545.00
27.5734	5543.00
27.5904	5541.00
27.6074	5539.00
27.6244	5537.00
27.6414	5535.00
27.6584	5533.00
27.6754	5531.00
27.6924	5529.00
27.7094	5528.00
27.7264	5526.00
27.7434	5524.00
27.7604	5522.00
27.7774	5520.00
27.7944	5518.00
27.8114	5516.00
27.8284	5514.00
27.8454	5512.00
27.8624	5510.00
27.8794	5509.00
27.8964	5507.00
27.9134	5505.00
27.9304	5503.00
27.9474	5501.00
27.9644	5499.00
27.9814	5498.00
27.9984	5496.00
28.0154	5494.00
28.0324	5492.00
28.0494	5491.00
28.0664	5489.00
28.0834	5487.00
28.1004	5485.00
28.1174	5484.00
28.1344	5482.00
28.1514	5480.00
28.1684	5478.00
28.1854	5477.00
28.2024	5475.00
28.2194	5473.00
28.2364	5472.00
28.2534	5470.00
28.2704	5469.00
28.2874	5467.00
28.3044	5466.00
28.3214	5464.00
28.3384	5463.00
28.3554	5461.00
28.3724	5460.00
28.3894	5459.00
28.4064	5457.00
28.4234	5456.00
28.4404	5455.00
28.4574	5454.00
28.4744	5453.00
28.4914	5452.00
28.5084	5452.00
28.5254	5451.00
28.5424	5451.00
28.5594	5451.00
28.5764	5451.00
28.5934	5452.00
28.6104	5453.00
28.6274	5454.00
28.6444	5455.00
28.6614	5457.00
28.6784	5460.00
28.6954	5462.00
28.7124	5465.00
28.7294	5469.00
28.7464	5473.00
28.7634	5478.00
28.7804	5482.00
28.7974	5488.00
28.8144	5493.00
28.8314	5499.00
28.8484	5505.00
28.8654	5511.00
28.8824	5517.00
28.8994	5522.00
28.9164	5528.00
28.9334	5532.00
28.9504	5536.00
28.9674	5539.00
28.9844	5540.00
29.0014	5541.00
29.0184	5540.00
29.0354	5537.00
29.0524	5533.00
29.0694	5528.00
29.0864	5522.00
29.1034	5515.00
29.1204	5507.00
29.1374	5498.00
29.1544	5490.00
29.1714	5480.00
29.1884	5471.00
29.2054	5462.00
29.2224	5453.00
29.2394	5444.00
29.2564	5435.00
29.2734	5427.00
29.2904	5419.00
29.3074	5412.00
29.3244	5405.00
29.3414	5398.00
29.3584	5392.00
29.3754	5387.00
29.3924	5381.00
29.4094	5376.00
29.4264	5372.00
29.4434	5368.00
29.4604	5364.00
29.4774	5360.00
29.4944	5357.00
29.5114	5354.00
29.5284	5351.00
29.5454	5348.00
29.5624	5345.00
29.5794	5343.00
29.5964	5340.00
29.6134	5338.00
29.6304	5336.00
29.6474	5334.00
29.6644	5332.00
29.6814	5330.00
29.6984	5328.00
29.7154	5326.00
29.7324	5324.00
29.7494	5322.00
29.7664	5320.00
29.7834	5318.00
29.8004	5317.00
29.8174	5315.00
29.8344	5313.00
29.8514	5311.00
29.8684	5310.00
29.8854	5308.00
29.9024	5306.00
29.9194	5305.00
29.9364	5303.00
29.9534	5301.00
29.9704	5300.00
29.9874	5298.00
30.0044	5296.00
30.0214	5295.00
30.0384	5293.00
30.0554	5292.00
30.0724	5290.00
30.0894	5289.00
30.1064	5287.00
30.1234	5285.00
30.1404	5284.00
30.1574	5282.00
30.1744	5281.00
30.1914	5279.00
30.2084	5278.00
30.2254	5276.00
30.2424	5275.00
30.2594	5273.00
30.2764	5272.00
30.2934	5270.00
30.3104	5269.00
30.3274	5267.00
30.3444	5266.00
30.3614	5264.00
30.3784	5263.00
30.3954	5261.00
30.4124	5260.00
30.4294	5259.00
30.4464	5257.00
30.4634	5256.00
30.4804	5254.00
30.4974	5253.00
30.5144	5251.00
30.5314	5250.00
30.5484	5249.00
30.5654	5247.00
30.5824	5246.00
30.5994	5244.00
30.6164	5243.00
30.6334	5242.00
30.6504	5240.00
30.6674	5239.00
30.6844	5237.00
30.7014	5236.00
30.7184	5235.00
30.7354	5233.00
30.7524	5232.00
30.7694	5231.00
30.7864	5229.00
30.8034	5228.00
30.8204	5227.00
30.8374	5225.00
30.8544	5224.00
30.8714	5223.00
30.8884	5221.00
30.9054	5220.00
30.9224	5219.00
30.9394	5217.00
30.9564	5216.00
30.9734	5215.00
30.9904	5214.00
31.0074	5212.00
31.0244	5211.00
31.0414	5210.00
31.0584	5209.00
31.0754	5207.00
31.0924	5206.00
31.1094	5205.00
31.1264	5204.00
31.1434	5203.00
31.1604	5201.00
31.1774	5200.00
31.1944	5199.00
31.2114	5198.00
31.2284	5197.00
31.2454	5196.00
31.2624	5195.00
31.2794	5194.00
31.2964	5192.00
31.3134	5191.00
31.3304	5190.00
31.3474	5189.00
31.3644	5188.00
31.3814	5187.00
31.3984	5186.00
31.4154	5185.00
31.4324	5184.00
31.4494	5182.00
31.4664	5181.00
31.4834	5180.00
31.5004	5179.00
31.5174	5178.00
31.5344	5176.00
31.5514	5175.00
31.5684	5174.00
31.5854	5172.00
31.6024	5171.00
31.6194	5170.00
31.6364	5168.00
31.6534	5167.00
31.6704	5166.00
31.6874	5164.00
31.7044	5163.00
31.7214	5162.00
31.7384	5160.00
31.7554	5159.00
31.7724	5158.00
31.7894	5157.00
31.8064	5155.00
31.8234	5154.00
31.8404	5153.00
31.8574	5152.00
31.8744	5150.00
31.8914	5149.00
31.9084	5148.00
31.9254	5147.00
31.9424	5146.00
31.9594	5145.00
31.9764	5143.00
31.9934	5142.00
32.0104	5141.00
32.0274	5140.00
32.0444	5139.00
32.0614	5138.00
32.0784	5137.00
32.0954	5135.00
32.1124	5134.00
32.1294	5133.00
32.1464	5132.00
32.1634	5131.00
32.1804	5130.00
32.1974	5129.00
32.2144	5128.00
32.2314	5127.00
32.2484	5126.00
32.2654	5125.00
32.2824	5124.00
32.2994	5122.00
32.3164	5121.00
32.3334	5120.00
32.3504	5119.00
32.3674	5118.00
32.3844	5117.00
32.4014	5116.00
32.4184	5115.00
32.4354	5114.00
32.4524	5113.00
32.4694	5112.00
32.4864	5111.00
32.5034	5110.00
32.5204	5109.00
32.5374	5108.00
32.5544	5107.00
32.5714	5106.00
32.5884	5105.00
32.6054	5104.00
32.6224	5103.00
32.6394	5102.00
32.6564	5101.00
32.6734	5100.00
32.6904	5099.00
32.7074	5098.00
32.7244	5097.00
32.7414	5096.00
32.7584	5095.00
32.7754	5094.00
32.7924	5093.00
32.8094	5092.00
32.8264	5091.00
32.8434	5090.00
32.8604	5089.00
32.8774	5088.00
32.8944	5087.00
32.9114	5086.00
32.9284	5085.00
32.9454	5084.00
32.9624	5083.00
32.9794	5082.00
32.9964	5081.00
33.0134	5080.00
33.0304	5079.00
33.0474	5079.00
33.0644	5078.00
33.0814	5077.00
33.0984	5076.00
33.1154	5075.00
33.1324	5074.00
33.1494	5073.00
33.1664	5072.00
33.1834	5071.00
33.2004	5070.00
33.2174	5070.00
33.2344	5069.00
33.2514	5068.00
33.2684	5067.00
33.2854	5066.00
33.3024	5065.00
33.3194	5064.00
33.3364	5064.00
33.3534	5063.00
33.3704	5062.00
33.3874	5061.00
33.4044	5061.00
33.4214	5060.00
33.4384	5059.00
33.4554	5058.00
33.4724	5058.00
33.4894	5057.00
33.5064	5056.00
33.5234	5055.00
33.5404	5055.00
33.5574	5054.00
33.5744	5053.00
33.5914	5053.00
33.6084	5052.00
33.6254	5051.00
33.6424	5051.00
33.6594	5050.00
33.6764	5049.00
33.6934	5048.00
33.7104	5048.00
33.7274	5047.00
33.7444	5046.00
33.7614	5045.00
33.7784	5044.00
33.7954	5043.00
33.8124	5042.00
33.8294	5041.00
33.8464	5040.00
33.8634	5039.00
33.8804	5038.00
33.8974	5037.00
33.9144	5036.00
33.9314	5035.00
33.9484	5034.00
33.9654	5033.00
33.9824	5032.00
33.9994	5031.00
34.0164	5030.00
34.0334	5029.00
34.0504	5029.00
34.0674	5028.00
34.0844	5027.00
34.1014	5026.00
34.1184	5025.00
34.1354	5024.00
34.1524	5023.00
34.1694	5023.00
34.1864	5022.00
34.2034	5021.00
34.2204	5020.00
34.2374	5019.00
34.2544	5019.00
34.2714	5018.00
34.2884	5017.00
34.3054	5016.00
34.3224	5016.00
34.3394	5015.00
34.3564	5014.00
34.3734	5013.00
34.3904	5013.00
34.4074	5012.00
34.4244	5011.00
34.4414	5010.00
34.4584	5010.00
34.4754	5009.00
34.4924	5008.00
34.5094	5007.00
34.5264	5007.00
34.5434	5006.00
34.5604	5005.00
34.5774	5005.00
34.5944	5004.00
34.6114	5003.00
34.6284	5002.00
34.6454	5002.00
34.6624	5001.00
34.6794	5000.00
34.6964	5000.00
34.7134	4999.00
34.7304	4998.00
34.7474	4998.00
34.7644	4997.00
34.7814	4996.00
34.7984	4996.00
34.8154	4995.00
34.8324	4994.00
34.8494	4994.00
34.8664	4993.00
34.8834	4992.00
34.9004	4992.00
34.9174	4991.00
34.9344	4990.00
34.9514	4990.00
34.9684	4989.00
34.9854	4988.00
35.0024	4988.00
35.0194	4987.00
35.0364	4987.00
35.0534	4986.00
35.0704	4985.00
35.0874	4985.00
35.1044	4984.00
35.1214	4984.00
35.1384	4983.00
35.1554	4982.00
35.1724	4982.00
35.1894	4981.00
35.2064	4981.00
35.2234	4980.00
35.2404	4980.00
35.2574	4979.00
35.2744	4979.00
35.2914	4978.00
35.3084	4978.00
35.3254	4978.00
35.3424	4977.00
35.3594	4977.00
35.3764	4977.00
35.3934	4976.00
35.4104	4976.00
35.4274	4976.00
35.4444	4976.00
35.4614	4976.00
35.4784	4976.00
35.4954	4975.00
35.5124	4975.00
35.5294	4975.00
35.5464	4975.00
35.5634	4975.00
35.5804	4975.00
35.5974	4975.00
35.6144	4975.00
35.6314	4974.00
35.6484	4974.00
35.6654	4974.00
35.6824	4973.00
35.6994	4973.00
35.7164	4972.00
35.7334	4971.00
35.7504	4970.00
35.7674	4970.00
35.7844	4969.00
35.8014	4968.00
35.8184	4967.00
35.8354	4966.00
35.8524	4965.00
35.8694	4964.00
35.8864	4962.00
35.9034	4961.00
35.9204	4960.00
35.9374	4959.00
35.9544	4959.00
35.9714	4958.00
35.9884	4957.00
36.0054	4956.00
36.0224	4955.00
36.0394	4954.00
36.0564	4953.00
36.0734	4953.00
36.0904	4952.00
36.1074	4951.00
36.1244	4951.00
36.1414	4950.00
36.1584	4949.00
36.1754	4949.00
36.1924	4948.00
36.2094	4947.00
36.2264	4947.00
36.2434	4946.00
36.2604	4946.00
36.2774	4945.00
36.2944	4945.00
36.3114	4944.00
36.3284	4944.00
36.3454	4943.00
36.3624	4943.00
36.3794	4942.00
36.3964	4942.00
36.4134	4941.00
36.4304	4941.00
36.4474	4940.00
36.4644	4940.00
36.4814	4939.00
36.4984	4939.00
36.5154	4938.00
36.5324	4938.00
36.5494	4937.00
36.5664	4937.00
36.5834	4936.00
36.6004	4936.00
36.6174	4935.00
36.6344	4935.00
36.6514	4934.00
36.6684	4934.00
36.6854	4933.00
36.7024	4933.00
36.7194	4933.00
36.7364	4932.00
36.7534	4932.00
36.7704	4931.00
36.7874	4931.00
36.8044	4930.00
36.8214	4930.00
36.8384	4929.00
36.8554	4929.00
36.8724	4929.00
36.8894	4928.00
36.9064	4928.00
36.9234	4927.00
36.9404	4927.00
36.9574	4927.00
36.9744	4926.00
36.9914	4926.00
37.0084	4925.00
37.0254	4925.00
37.0424	4924.00
37.0594	4924.00
37.0764	4924.00
37.0934	4923.00
37.1104	4923.00
37.1274	4922.00
37.1444	4922.00
37.1614	4922.00
37.1784	4921.00
37.1954	4921.00
37.2124	4921.00
37.2294	4920.00
37.2464	4920.00
37.2634	4919.00
37.2804	4919.00
37.2974	4919.00
37.3144	4918.00
37.3314	4918.00
37.3484	4918.00
37.3654	4917.00
37.3824	4917.00
37.3994	4916.00
37.4164	4916.00
37.4334	4916.00
37.4504	4915.00
37.4674	4915.00
37.4844	4915.00
37.5014	4914.00
37.5184	4914.00
37.5354	4914.00
37.5524	4913.00
37.5694	4913.00
37.5864	4913.00
37.6034	4912.00
37.6204	4912.00
37.6374	4912.00
37.6544	4911.00
37.6714	4911.00
37.6884	4911.00
37.7054	4911.00
37.7224	4910.00
37.7394	4910.00
37.7564	4910.00
37.7734	4910.00
37.7904	4909.00
37.8074	4909.00
37.8244	4909.00
37.8414	4909.00
37.8584	4908.00
37.8754	4908.00
37.8924	4908.00
37.9094	4908.00
37.9264	4908.00
37.9434	4908.00
37.9604	4908.00
37.9774	4908.00
37.9944	4908.00
38.0114	4908.00
38.0284	4908.00
38.0454	4909.00
38.0624	4909.00
38.0794	4909.00
38.0964	4909.00
38.1134	4910.00
38.1304	4910.00
38.1474	4910.00
38.1644	4911.00
38.1814	4911.00
38.1984	4911.00
38.2154	4912.00
38.2324	4912.00
38.2494	4912.00
38.2664	4912.00
38.2834	4912.00
38.3004	4912.00
38.3174	4912.00
38.3344	4912.00
38.3514	4911.00
38.3684	4911.00
38.3854	4910.00
38.4024	4909.00
38.4194	4909.00
38.4364	4908.00
38.4534	4907.00
38.4704	4906.00
38.4874	4905.00
38.5044	4904.00
38.5214	4904.00
38.5384	4903.00
38.5554	4902.00
38.5724	4901.00
38.5894	4901.00
38.6064	4900.00
38.6234	4899.00
38.6404	4899.00
38.6574	4898.00
38.6744	4898.00
38.6914	4897.00
38.7084	4897.00
38.7254	4897.00
38.7424	4896.00
38.7594	4896.00
38.7764	4896.00
38.7934	4896.00
38.8104	4896.00
38.8274	4896.00
38.8444	4896.00
38.8614	4896.00
38.8784	4897.00
38.8954	4897.00
38.9124	4897.00
38.9294	4898.00
38.9464	4898.00
38.9634	4899.00
38.9804	4899.00
38.9974	4900.00
39.0144	4900.00
39.0314	4901.00
39.0484	4902.00
39.0654	4902.00
39.0824	4903.00
39.0994	4903.00
39.1164	4903.00
39.1334	4904.00
39.1504	4904.00
39.1674	4904.00
39.1844	4904.00
39.2014	4903.00
39.2184	4903.00
39.2354	4902.00
39.2524	4902.00
39.2694	4901.00
39.2864	4900.00
39.3034	4899.00
39.3204	4898.00
39.3374	4897.00
39.3544	4896.00
39.3714	4895.00
39.3884	4894.00
39.4054	4893.00
39.4224	4892.00
39.4394	4891.00
39.4564	4890.00
39.4734	4889.00
39.4904	4888.00
39.5074	4888.00
39.5244	4887.00
39.5414	4886.00
39.5584	4886.00
39.5754	4885.00
39.5924	4885.00
39.6094	4884.00
39.6264	4884.00
39.6434	4883.00
39.6604	4883.00
39.6774	4883.00
39.6944	4882.00
39.7114	4882.00
39.7284	4882.00
39.7454	4881.00
39.7624	4881.00
39.7794	4881.00
39.7964	4881.00
39.8134	4881.00
39.8304	4880.00
39.8474	4880.00
39.8644	4880.00
39.8814	4880.00
39.8984	4880.00
39.9154	4879.00
39.9324	4879.00
39.9494	4879.00
39.9664	4879.00
39.9834	4879.00
40.0004	4879.00
40.0174	4878.00
40.0344	4878.00
40.0514	4878.00
40.0684	4878.00
40.0854	4878.00
40.1024	4878.00
40.1194	4878.00
40.1364	4878.00
40.1534	4877.00
40.1704	4877.00
40.1874	4877.00
40.2044	4877.00
40.2214	4877.00
40.2384	4877.00
40.2554	4877.00
40.2724	4876.00
40.2894	4876.00
40.3064	4876.00
40.3234	4876.00
40.3404	4876.00
40.3574	4876.00
40.3744	4876.00
40.3914	4875.00
40.4084	4875.00
40.4254	4875.00
40.4424	4875.00
40.4594	4875.00
40.4764	4875.00
40.4934	4875.00
40.5104	4875.00
40.5274	4874.00
40.5444	4874.00
40.5614	4874.00
40.5784	4874.00
40.5954	4874.00
40.6124	4874.00
40.6294	4874.00
40.6464	4874.00
40.6634	4874.00
40.6804	4873.00
40.6974	4873.00
40.7144	4873.00
40.7314	4873.00
40.7484	4873.00
40.7654	4873.00
40.7824	4873.00
40.7994	4873.00
40.8164	4873.00
40.8334	4873.00
40.8504	4873.00
40.8674	4873.00
40.8844	4873.00
40.9014	4873.00
40.9184	4873.00
40.9354	4873.00
40.9524	4873.00
40.9694	4873.00
40.9864	4873.00
41.0034	4873.00
41.0204	4873.00
41.0374	4873.00
41.0544	4873.00
41.0714	4873.00
41.0884	4873.00
41.1054	4873.00
41.1224	4873.00
41.1394	4874.00
41.1564	4874.00
41.1734	4874.00
41.1904	4874.00
41.2074	4875.00
41.2244	4875.00
41.2414	4876.00
41.2584	4877.00
41.2754	4877.00
41.2924	4878.00
41.3094	4879.00
41.3264	4880.00
41.3434	4881.00
41.3604	4882.00
41.3774	4883.00
41.3944	4884.00
41.4114	4886.00
41.4284	4887.00
41.4454	4888.00
41.4624	4890.00
41.4794	4891.00
41.4964	4892.00
41.5134	4894.00
41.5304	4895.00
41.5474	4896.00
41.5644	4897.00
41.5814	4897.00
41.5984	4898.00
41.6154	4898.00
41.6324	4898.00
41.6494	4898.00
41.6664	4897.00
41.6834	4897.00
41.7004	4896.00
41.7174	4895.00
41.7344	4893.00
41.7514	4892.00
41.7684	4891.00
41.7854	4889.00
41.8024	4888.00
41.8194	4886.00
41.8364	4885.00
41.8534	4884.00
41.8704	4882.00
41.8874	4881.00
41.9044	4880.00
41.9214	4879.00
41.9384	4878.00
41.9554	4877.00
41.9724	4876.00
41.9894	4875.00
42.0064	4874.00
42.0234	4874.00
42.0404	4873.00
42.0574	4873.00
42.0744	4872.00
42.0914	4872.00
42.1084	4871.00
42.1254	4871.00
42.1424	4871.00
42.1594	4871.00
42.1764	4870.00
42.1934	4870.00
42.2104	4870.00
42.2274	4870.00
42.2444	4870.00
42.2614	4870.00
42.2784	4870.00
42.2954	4870.00
42.3124	4870.00
42.3294	4870.00
42.3464	4870.00
42.3634	4870.00
42.3804	4870.00
42.3974	4870.00
42.4144	4870.00
42.4314	4870.00
42.4484	4870.00
42.4654	4870.00
42.4824	4871.00
42.4994	4871.00
42.5164	4871.00
42.5334	4871.00
42.5504	4872.00
42.5674	4872.00
42.5844	4873.00
42.6014	4873.00
42.6184	4874.00
42.6354	4874.00
42.6524	4875.00
42.6694	4876.00
42.6864	4876.00
42.7034	4877.00
42.7204	4878.00
42.7374	4878.00
42.7544	4879.00
42.7714	4880.00
42.7884	4880.00
42.8054	4881.00
42.8224	4881.00
42.8394	4881.00
42.8564	4882.00
42.8734	4882.00
42.8904	4882.00
42.9074	4882.00
42.9244	4881.00
42.9414	4881.00
42.9584	4881.00
42.9754	4880.00
42.9924	4880.00
43.0094	4879.00
43.0264	4878.00
43.0434	4878.00
43.0604	4877.00
43.0774	4876.00
43.0944	4876.00
43.1114	4875.00
43.1284	4874.00
43.1454	4874.00
43.1624	4873.00
43.1794	4873.00
43.1964	4872.00
43.2134	4872.00
43.2304	4871.00
43.2474	4871.00
43.2644	4871.00
43.2814	4870.00
43.2984	4870.00
43.3154	4870.00
43.3324	4870.00
43.3494	4869.00
43.3664	4869.00
43.3834	4869.00
43.4004	4869.00
43.4174	4869.00
43.4344	4869.00
43.4514	4869.00
43.4684	4869.00
43.4854	4869.00
43.5024	4869.00
43.5194	4869.00
43.5364	4869.00
43.5534	4869.00
43.5704	4869.00
43.5874	4869.00
43.6044	4869.00
43.6214	4869.00
43.6384	4869.00
43.6554	4869.00
43.6724	4869.00
43.6894	4869.00
43.7064	4869.00
43.7234	4869.00
43.7404	4869.00
43.7574	4869.00
43.7744	4869.00
43.7914	4869.00
43.8084	4869.00
43.8254	4869.00
43.8424	4869.00
43.8594	4869.00
43.8764	4869.00
43.8934	4869.00
43.9104	4869.00
43.9274	4869.00
43.9444	4869.00
43.9614	4869.00
43.9784	4869.00
43.9954	4869.00
44.0124	4869.00
44.0294	4869.00
44.0464	4869.00
44.0634	4869.00
44.0804	4869.00
44.0974	4869.00
44.1144	4869.00
44.1314	4869.00
44.1484	4869.00
44.1654	4869.00
44.1824	4870.00
44.1994	4870.00
44.2164	4870.00
44.2334	4870.00
44.2504	4870.00
44.2674	4870.00
44.2844	4870.00
44.3014	4870.00
44.3184	4870.00
44.3354	4870.00
44.3524	4870.00
44.3694	4870.00
44.3864	4870.00
44.4034	4870.00
44.4204	4870.00
44.4374	4870.00
44.4544	4870.00
44.4714	4870.00
44.4884	4870.00
44.5054	4870.00
44.5224	4871.00
44.5394	4871.00
44.5564	4871.00
44.5734	4871.00
44.5904	4871.00
44.6074	4871.00
44.6244	4871.00
44.6414	4871.00
44.6584	4871.00
44.6754	4871.00
44.6924	4871.00
44.7094	4871.00
44.7264	4871.00
44.7434	4871.00
44.7604	4871.00
44.7774	4871.00
44.7944	4871.00
44.8114	4872.00
44.8284	4872.00
44.8454	4872.00
44.8624	4872.00
44.8794	4872.00
44.8964	4872.00
44.9134	4872.00
44.9304	4872.00
44.9474	4872.00
44.9644	4872.00
44.9814	4872.00
44.9984	4872.00
45.0154	4872.00
45.0324	4872.00
45.0494	4872.00
45.0664	4872.00
45.0834	4873.00
45.1004	4873.00
45.1174	4873.00
45.1344	4873.00
45.1514	4873.00
45.1684	4873.00
45.1854	4873.00
45.2024	4873.00
45.2194	4873.00
45.2364	4873.00
45.2534	4873.00
45.2704	4873.00
45.2874	4873.00
45.3044	4873.00
45.3214	4874.00
45.3384	4874.00
45.3554	4874.00
45.3724	4874.00
45.3894	4874.00
45.4064	4874.00
45.4234	4874.00
45.4404	4874.00
45.4574	4874.00
45.4744	4874.00
45.4914	4874.00
45.5084	4874.00
45.5254	4874.00
45.5424	4874.00
45.5594	4875.00
45.5764	4875.00
45.5934	4875.00
45.6104	4875.00
45.6274	4875.00
45.6444	4875.00
45.6614	4875.00
45.6784	4875.00
45.6954	4875.00
45.7124	4875.00
45.7294	4875.00
45.7464	4875.00
45.7634	4876.00
45.7804	4876.00
45.7974	4876.00
45.8144	4876.00
45.8314	4876.00
45.8484	4876.00
45.8654	4876.00
45.8824	4876.00
45.8994	4876.00
45.9164	4876.00
45.9334	4876.00
45.9504	4876.00
45.9674	4877.00
45.9844	4877.00
46.0014	4877.00
46.0184	4877.00
46.0354	4877.00
46.0524	4877.00
46.0694	4877.00
46.0864	4877.00
46.1034	4877.00
46.1204	4877.00
46.1374	4878.00
46.1544	4878.00
46.1714	4878.00
46.1884	4878.00
46.2054	4878.00
46.2224	4878.00
46.2394	4878.00
46.2564	4878.00
46.2734	4878.00
46.2904	4879.00
46.3074	4879.00
46.3244	4879.00
46.3414	4879.00
46.3584	4879.00
46.3754	4879.00
46.3924	4879.00
46.4094	4880.00
46.4264	4880.00
46.4434	4880.00
46.4604	4880.00
46.4774	4880.00
46.4944	4881.00
46.5114	4881.00
46.5284	4881.00
46.5454	4882.00
46.5624	4882.00
46.5794	4882.00
46.5964	4883.00
46.6134	4883.00
46.6304	4884.00
46.6474	4884.00
46.6644	4885.00
46.6814	4885.00
46.6984	4886.00
46.7154	4886.00
46.7324	4887.00
46.7494	4887.00
46.7664	4888.00
46.7834	4888.00
46.8004	4888.00
46.8174	4889.00
46.8344	4889.00
46.8514	4889.00
46.8684	4890.00
46.8854	4890.00
46.9024	4890.00
46.9194	4890.00
46.9364	4890.00
46.9534	4889.00
46.9704	4889.00
46.9874	4889.00
47.0044	4889.00
47.0214	4888.00
47.0384	4888.00
47.0554	4888.00
47.0724	4888.00
47.0894	4887.00
47.1064	4887.00
47.1234	4887.00
47.1404	4886.00
47.1574	4886.00
47.1744	4886.00
47.1914	4886.00
47.2084	4885.00
47.2254	4885.00
47.2424	4885.00
47.2594	4885.00
47.2764	4885.00
47.2934	4885.00
47.3104	4885.00
47.3274	4885.00
47.3444	4885.00
47.3614	4885.00
47.3784	4885.00
47.3954	4885.00
47.4124	4885.00
47.4294	4885.00
47.4464	4885.00
47.4634	4885.00
47.4804	4885.00
47.4974	4885.00
47.5144	4885.00
47.5314	4885.00
47.5484	4885.00
47.5654	4886.00
47.5824	4886.00
47.5994	4886.00
47.6164	4886.00
47.6334	4886.00
47.6504	4886.00
47.6674	4886.00
47.6844	4887.00
47.7014	4887.00
47.7184	4887.00
47.7354	4887.00
47.7524	4887.00
47.7694	4887.00
47.7864	4888.00
47.8034	4888.00
47.8204	4888.00
47.8374	4888.00
47.8544	4889.00
47.8714	4889.00
47.8884	4889.00
47.9054	4890.00
47.9224	4890.00
47.9394	4891.00
47.9564	4891.00
47.9734	4892.00
47.9904	4893.00
48.0074	4894.00
48.0244	4895.00
48.0414	4896.00
48.0584	4897.00
48.0754	4898.00
48.0924	4899.00
48.1094	4901.00
48.1264	4902.00
48.1434	4904.00
48.1604	4906.00
48.1774	4907.00
48.1944	4909.00
48.2114	4911.00
48.2284	4913.00
48.2454	4915.00
48.2624	4917.00
48.2794	4919.00
48.2964	4921.00
48.3134	4923.00
48.3304	4924.00
48.3474	4925.00
48.3644	4926.00
48.3814	4927.00
48.3984	4927.00
48.4154	4927.00
48.4324	4927.00
48.4494	4926.00
48.4664	4926.00
48.4834	4925.00
48.5004	4923.00
48.5174	4922.00
48.5344	4920.00
48.5514	4919.00
48.5684	4917.00
48.5854	4915.00
48.6024	4913.00
48.6194	4912.00
48.6364	4910.00
48.6534	4908.00
48.6704	4907.00
48.6874	4905.00
48.7044	4904.00
48.7214	4902.00
48.7384	4901.00
48.7554	4900.00
48.7724	4899.00
48.7894	4898.00
48.8064	4898.00
48.8234	4897.00
48.8404	4896.00
48.8574	4896.00
48.8744	4895.00
48.8914	4895.00
48.9084	4894.00
48.9254	4894.00
48.9424	4894.00
48.9594	4894.00
48.9764	4894.00
48.9934	4893.00
49.0104	4893.00
49.0274	4893.00
49.0444	4893.00
49.0614	4893.00
49.0784	4893.00
49.0954	4893.00
49.1124	4893.00
49.1294	4893.00
49.1464	4893.00
49.1634	4893.00
49.1804	4893.00
49.1974	4893.00
49.2144	4893.00
49.2314	4893.00
49.2484	4893.00
49.2654	4893.00
49.2824	4893.00
49.2994	4893.00
49.3164	4893.00
49.3334	4893.00
49.3504	4893.00
49.3674	4893.00
49.3844	4893.00
49.4014	4894.00
49.4184	4894.00
49.4354	4894.00
49.4524	4894.00
49.4694	4894.00
49.4864	4894.00
49.5034	4894.00
49.5204	4894.00
49.5374	4894.00
49.5544	4895.00
49.5714	4895.00
49.5884	4895.00
49.6054	4895.00
49.6224	4895.00
49.6394	4896.00
49.6564	4896.00
49.6734	4896.00
49.6904	4896.00
49.7074	4897.00
49.7244	4897.00
49.7414	4897.00
49.7584	4898.00
49.7754	4898.00
49.7924	4898.00
49.8094	4899.00
49.8264	4899.00
49.8434	4900.00
49.8604	4900.00
49.8774	4901.00
49.8944	4901.00
49.9114	4902.00
49.9284	4902.00
49.9454	4903.00
49.9624	4903.00
49.9794	4904.00
49.9964	4905.00
50.0134	4905.00
50.0304	4906.00
50.0474	4906.00
50.0644	4907.00
50.0814	4908.00
50.0984	4909.00
50.1154	4910.00
50.1324	4911.00
50.1494	4912.00
50.1664	4913.00
50.1834	4915.00
50.2004	4916.00
50.2174	4918.00
50.2344	4920.00
50.2514	4922.00
50.2684	4924.00
50.2854	4926.00
50.3024	4928.00
50.3194	4931.00
50.3364	4933.00
50.3534	4935.00
50.3704	4937.00
50.3874	4939.00
50.4044	4941.00
50.4214	4943.00
50.4384	4944.00
50.4554	4945.00
50.4724	4946.00
50.4894	4946.00
50.5064	4946.00
50.5234	4945.00
50.5404	4944.00
50.5574	4943.00
50.5744	4941.00
50.5914	4940.00
50.6084	4938.00
50.6254	4935.00
50.6424	4933.00
50.6594	4931.00
50.6764	4928.00
50.6934	4926.00
50.7104	4924.00
50.7274	4922.00
50.7444	4919.00
50.7614	4917.00
50.7784	4915.00
50.7954	4913.00
50.8124	4912.00
50.8294	4910.00
50.8464	4909.00
50.8634	4908.00
50.8804	4906.00
50.8974	4905.00
50.9144	4904.00
50.9314	4904.00
50.9484	4903.00
50.9654	4902.00
50.9824	4902.00
50.9994	4901.00
51.0164	4901.00
51.0334	4901.00
51.0504	4900.00
51.0674	4900.00
51.0844	4900.00
51.1014	4900.00
51.1184	4900.00
51.1354	4900.00
51.1524	4899.00
51.1694	4899.00
51.1864	4899.00
51.2034	4899.00
51.2204	4899.00
51.2374	4899.00
51.2544	4899.00
51.2714	4899.00
51.2884	4899.00
51.3054	4899.00
51.3224	4899.00
51.3394	4899.00
51.3564	4899.00
51.3734	4899.00
51.3904	4899.00
51.4074	4899.00
51.4244	4898.00
51.4414	4898.00
51.4584	4898.00
51.4754	4898.00
51.4924	4898.00
51.5094	4898.00
51.5264	4898.00
51.5434	4898.00
51.5604	4897.00
51.5774	4897.00
51.5944	4897.00
51.6114	4897.00
51.6284	4897.00
51.6454	4897.00
51.6624	4897.00
51.6794	4897.00
51.6964	4897.00
51.7134	4897.00
51.7304	4896.00
51.7474	4896.00
51.7644	4896.00
51.7814	4896.00
51.7984	4896.00
51.8154	4896.00
51.8324	4896.00
51.8494	4896.00
51.8664	4896.00
51.8834	4896.00
51.9004	4896.00
51.9174	4896.00
51.9344	4896.00
51.9514	4896.00
51.9684	4896.00
51.9854	4896.00
52.0024	4896.00
52.0194	4896.00
52.0364	4896.00
52.0534	4896.00
52.0704	4896.00
52.0874	4896.00
52.1044	4895.00
52.1214	4895.00
52.1384	4895.00
52.1554	4895.00
52.1724	4895.00
52.1894	4895.00
52.2064	4895.00
52.2234	4895.00
52.2404	4895.00
52.2574	4895.00
52.2744	4895.00
52.2914	4895.00
52.3084	4895.00
52.3254	4895.00
52.3424	4895.00
52.3594	4895.00
52.3764	4895.00
52.3934	4895.00
52.4104	4895.00
52.4274	4895.00
52.4444	4895.00
52.4614	4895.00
52.4784	4895.00
52.4954	4895.00
52.5124	4895.00
52.5294	4895.00
52.5464	4895.00
52.5634	4895.00
52.5804	4895.00
52.5974	4895.00
52.6144	4895.00
52.6314	4895.00
52.6484	4895.00
52.6654	4895.00
52.6824	4895.00
52.6994	4895.00
52.7164	4895.00
52.7334	4895.00
52.7504	4895.00
52.7674	4895.00
52.7844	4895.00
52.8014	4894.00
52.8184	4894.00
52.8354	4894.00
52.8524	4894.00
52.8694	4894.00
52.8864	4894.00
52.9034	4894.00
52.9204	4894.00
52.9374	4894.00
52.9544	4894.00
52.9714	4894.00
52.9884	4894.00
53.0054	4894.00
53.0224	4894.00
53.0394	4894.00
53.0564	4894.00
53.0734	4894.00
53.0904	4893.00
53.1074	4893.00
53.1244	4893.00
53.1414	4893.00
53.1584	4893.00
53.1754	4893.00
53.1924	4893.00
53.2094	4893.00
53.2264	4893.00
53.2434	4893.00
53.2604	4893.00
53.2774	4893.00
53.2944	4893.00
53.3114	4893.00
53.3284	4893.00
53.3454	4893.00
53.3624	4893.00
53.3794	4893.00
53.3964	4893.00
53.4134	4893.00
53.4304	4893.00
53.4474	4893.00
53.4644	4892.00
53.4814	4892.00
53.4984	4892.00
53.5154	4892.00
53.5324	4892.00
53.5494	4892.00
53.5664	4892.00
53.5834	4892.00
53.6004	4892.00
53.6174	4892.00
53.6344	4892.00
53.6514	4892.00
53.6684	4892.00
53.6854	4892.00
53.7024	4892.00
53.7194	4892.00
53.7364	4892.00
53.7534	4892.00
53.7704	4892.00
53.7874	4892.00
53.8044	4892.00
53.8214	4892.00
53.8384	4892.00
53.8554	4892.00
53.8724	4892.00
53.8894	4893.00
53.9064	4893.00
53.9234	4893.00
53.9404	4893.00
53.9574	4893.00
53.9744	4894.00
53.9914	4894.00
54.0084	4894.00
54.0254	4895.00
54.0424	4895.00
54.0594	4896.00
54.0764	4896.00
54.0934	4897.00
54.1104	4897.00
54.1274	4898.00
54.1444	4899.00
54.1614	4899.00
54.1784	4900.00
54.1954	4901.00
54.2124	4902.00
54.2294	4902.00
54.2464	4903.00
54.2634	4904.00
54.2804	4905.00
54.2974	4905.00
54.3144	4906.00
54.3314	4906.00
54.3484	4907.00
54.3654	4907.00
54.3824	4908.00
54.3994	4908.00
54.4164	4909.00
54.4334	4909.00
54.4504	4909.00
54.4674	4909.00
54.4844	4910.00
54.5014	4910.00
54.5184	4910.00
54.5354	4911.00
54.5524	4911.00
54.5694	4911.00
54.5864	4912.00
54.6034	4912.00
54.6204	4912.00
54.6374	4912.00
54.6544	4912.00
54.6714	4912.00
54.6884	4911.00
54.7054	4911.00
54.7224	4910.00
54.7394	4909.00
54.7564	4909.00
54.7734	4908.00
54.7904	4907.00
54.8074	4906.00
54.8244	4905.00
54.8414	4903.00
54.8584	4902.00
54.8754	4901.00
54.8924	4900.00
54.9094	4899.00
54.9264	4897.00
54.9434	4896.00
54.9604	4895.00
54.9774	4894.00
54.9944	4893.00
55.0114	4892.00
55.0284	4891.00
55.0454	4890.00
55.0624	4890.00
55.0794	4889.00
55.0964	4888.00
55.1134	4888.00
55.1304	4887.00
55.1474	4886.00
55.1644	4886.00
55.1814	4886.00
55.1984	4885.00
55.2154	4885.00
55.2324	4884.00
55.2494	4884.00
55.2664	4884.00
55.2834	4883.00
55.3004	4883.00
55.3174	4883.00
55.3344	4883.00
55.3514	4882.00
55.3684	4882.00
55.3854	4882.00
55.4024	4882.00
55.4194	4882.00
55.4364	4881.00
55.4534	4881.00
55.4704	4881.00
55.4874	4881.00
55.5044	4881.00
55.5214	4880.00
55.5384	4880.00
55.5554	4880.00
55.5724	4880.00
55.5894	4880.00
55.6064	4880.00
55.6234	4879.00
55.6404	4879.00
55.6574	4879.00
55.6744	4879.00
55.6914	4879.00
55.7084	4879.00
55.7254	4878.00
55.7424	4878.00
55.7594	4878.00
55.7764	4878.00
55.7934	4878.00
55.8104	4878.00
55.8274	4877.00
55.8444	4877.00
55.8614	4877.00
55.8784	4877.00
55.8954	4877.00
55.9124	4877.00
55.9294	4876.00
55.9464	4876.00
55.9634	4876.00
55.9804	4876.00
55.9974	4876.00
56.0144	4876.00
56.0314	4875.00
56.0484	4875.00
56.0654	4875.00
56.0824	4875.00
56.0994	4875.00
56.1164	4875.00
56.1334	4874.00
56.1504	4874.00
56.1674	4874.00
56.1844	4874.00
56.2014	4874.00
56.2184	4874.00
56.2354	4873.00
56.2524	4873.00
56.2694	4873.00
56.2864	4873.00
56.3034	4873.00
56.3204	4873.00
56.3374	4872.00
56.3544	4872.00
56.3714	4872.00
56.3884	4872.00
56.4054	4872.00
56.4224	4871.00
56.4394	4871.00
56.4564	4871.00
56.4734	4871.00
56.4904	4871.00
56.5074	4871.00
56.5244	4870.00
56.5414	4870.00
56.5584	4870.00
56.5754	4870.00
56.5924	4870.00
56.6094	4870.00
56.6264	4869.00
56.6434	4869.00
56.6604	4869.00
56.6774	4869.00
56.6944	4869.00
56.7114	4868.00
56.7284	4868.00
56.7454	4868.00
56.7624	4868.00
56.7794	4868.00
56.7964	4867.00
56.8134	4867.00
56.8304	4867.00
56.8474	4867.00
56.8644	4867.00
56.8814	4867.00
56.8984	4866.00
56.9154	4866.00
56.9324	4866.00
56.9494	4866.00
56.9664	4866.00
56.9834	4865.00
57.0004	4865.00
57.0174	4865.00
57.0344	4865.00
57.0514	4865.00
57.0684	4864.00
57.0854	4864.00
57.1024	4864.00
57.1194	4864.00
57.1364	4864.00
57.1534	4863.00
57.1704	4863.00
57.1874	4863.00
57.2044	4863.00
57.2214	4863.00
57.2384	4862.00
57.2554	4862.00
57.2724	4862.00
57.2894	4862.00
57.3064	4862.00
57.3234	4861.00
57.3404	4861.00
57.3574	4861.00
57.3744	4861.00
57.3914	4861.00
57.4084	4860.00
57.4254	4860.00
57.4424	4860.00
57.4594	4860.00
57.4764	4860.00
57.4934	4859.00
57.5104	4859.00
57.5274	4859.00
57.5444	4859.00
57.5614	4859.00
57.5784	4858.00
57.5954	4858.00
57.6124	4858.00
57.6294	4858.00
57.6464	4858.00
57.6634	4857.00
57.6804	4857.00
57.6974	4857.00
57.7144	4857.00
57.7314	4856.00
57.7484	4856.00
57.7654	4856.00
57.7824	4856.00
57.7994	4856.00
57.8164	4855.00
57.8334	4855.00
57.8504	4855.00
57.8674	4855.00
57.8844	4855.00
57.9014	4854.00
57.9184	4854.00
57.9354	4854.00
57.9524	4854.00
57.9694	4853.00
57.9864	4853.00
58.0034	4853.00
58.0204	4853.00
58.0374	4853.00
58.0544	4852.00
58.0714	4852.00
58.0884	4852.00
58.1054	4852.00
58.1224	4851.00
58.1394	4851.00
58.1564	4851.00
58.1734	4851.00
58.1904	4851.00
58.2074	4850.00
58.2244	4850.00
58.2414	4850.00
58.2584	4850.00
58.2754	4849.00
58.2924	4849.00
58.3094	4849.00
58.3264	4849.00
58.3434	4848.00
58.3604	4848.00
58.3774	4848.00
58.3944	4848.00
58.4114	4848.00
58.4284	4847.00
58.4454	4847.00
58.4624	4847.00
58.4794	4847.00
58.4964	4846.00
58.5134	4846.00
58.5304	4846.00
58.5474	4846.00
58.5644	4845.00
58.5814	4845.00
58.5984	4845.00
58.6154	4845.00
58.6324	4844.00
58.6494	4844.00
58.6664	4844.00
58.6834	4844.00
58.7004	4844.00
58.7174	4843.00
58.7344	4843.00
58.7514	4843.00
58.7684	4843.00
58.7854	4842.00
58.8024	4842.00
58.8194	4842.00
58.8364	4842.00
58.8534	4841.00
58.8704	4841.00
58.8874	4841.00
58.9044	4841.00
58.9214	4840.00
58.9384	4840.00
58.9554	4840.00
58.9724	4840.00
58.9894	4839.00
59.0064	4839.00
59.0234	4839.00
59.0404	4839.00
59.0574	4838.00
59.0744	4838.00
59.0914	4838.00
59.1084	4838.00
59.1254	4837.00
59.1424	4837.00
59.1594	4837.00
59.1764	4837.00
59.1934	4836.00
59.2104	4836.00
59.2274	4836.00
59.2444	4836.00
59.2614	4835.00
59.2784	4835.00
59.2954	4835.00
59.3124	4835.00
59.3294	4835.00
59.3464	4834.00
59.3634	4834.00
59.3804	4834.00
59.3974	4834.00
59.4144	4833.00
59.4314	4833.00
59.4484	4833.00
59.4654	4833.00
59.4824	4832.00
59.4994	4832.00
59.5164	4832.00
59.5334	4832.00
59.5504	4831.00
59.5674	4831.00
59.5844	4831.00
59.6014	4831.00
59.6184	4831.00
59.6354	4830.00
59.6524	4830.00
59.6694	4830.00
59.6864	4830.00
59.7034	4830.00
59.7204	4830.00
59.7374	4829.00
59.7544	4829.00
59.7714	4829.00
59.7884	4829.00
59.8054	4829.00
59.8224	4829.00
59.8394	4829.00
59.8564	4829.00
59.8734	4829.00
59.8904	4829.00
59.9074	4829.00
59.9244	4829.00
59.9414	4830.00
59.9584	4830.00
59.9754	4830.00
59.9924	4831.00
60.0094	4831.00
60.0264	4831.00
60.0434	4832.00
60.0604	4832.00
60.0774	4833.00
60.0944	4833.00
60.1114	4834.00
60.1284	4834.00
60.1454	4835.00
60.1624	4835.00
60.1794	4835.00
60.1964	4836.00
60.2134	4836.00
60.2304	4836.00
60.2474	4836.00
60.2644	4836.00
60.2814	4835.00
60.2984	4835.00
60.3154	4834.00
60.3324	4834.00
60.3494	4833.00
60.3664	4833.00
60.3834	4832.00
60.4004	4831.00
60.4174	4830.00
60.4344	4829.00
60.4514	4828.00
60.4684	4827.00
60.4854	4826.00
60.5024	4825.00
60.5194	4824.00
60.5364	4823.00
60.5534	4822.00
60.5704	4822.00
60.5874	4821.00
60.6044	4820.00
60.6214	4819.00
60.6384	4818.00
60.6554	4818.00
60.6724	4817.00
60.6894	4816.00
60.7064	4816.00
60.7234	4815.00
60.7404	4815.00
60.7574	4814.00
60.7744	4814.00
60.7914	4813.00
60.8084	4813.00
60.8254	4812.00
60.8424	4812.00
60.8594	4811.00
60.8764	4811.00
60.8934	4811.00
60.9104	4810.00
60.9274	4810.00
60.9444	4810.00
60.9614	4809.00
60.9784	4809.00
60.9954	4809.00
61.0124	4808.00
61.0294	4808.00
61.0464	4808.00
61.0634	4808.00
61.0804	4807.00
61.0974	4807.00
61.1144	4807.00
61.1314	4807.00
61.1484	4807.00
61.1654	4806.00
61.1824	4806.00
61.1994	4806.00
61.2164	4806.00
61.2334	4806.00
61.2504	4805.00
61.2674	4805.00
61.2844	4805.00
61.3014	4805.00
61.3184	4805.00
61.3354	4804.00
61.3524	4804.00
61.3694	4804.00
61.3864	4804.00
61.4034	4804.00
61.4204	4803.00
61.4374	4803.00
61.4544	4803.00
61.4714	4802.00
61.4884	4802.00
61.5054	4802.00
61.5224	4801.00
61.5394	4801.00
61.5564	4801.00
61.5734	4800.00
61.5904	4800.00
61.6074	4799.00
61.6244	4799.00
61.6414	4799.00
61.6584	4798.00
61.6754	4798.00
61.6924	4797.00
61.7094	4797.00
61.7264	4797.00
61.7434	4796.00
61.7604	4796.00
61.7774	4795.00
61.7944	4795.00
61.8114	4795.00
61.8284	4794.00
61.8454	4794.00
61.8624	4794.00
61.8794	4793.00
61.8964	4793.00
61.9134	4793.00
61.9304	4792.00
61.9474	4792.00
61.9644	4792.00
61.9814	4791.00
61.9984	4791.00
62.0154	4791.00
62.0324	4790.00
62.0494	4790.00
62.0664	4790.00
62.0834	4790.00
62.1004	4789.00
62.1174	4789.00
62.1344	4789.00
62.1514	4788.00
62.1684	4788.00
62.1854	4788.00
62.2024	4788.00
62.2194	4787.00
62.2364	4787.00
62.2534	4787.00
62.2704	4786.00
62.2874	4786.00
62.3044	4786.00
62.3214	4786.00
62.3384	4785.00
62.3554	4785.00
62.3724	4785.00
62.3894	4784.00
62.4064	4784.00
62.4234	4784.00
62.4404	4784.00
62.4574	4783.00
62.4744	4783.00
62.4914	4783.00
62.5084	4783.00
62.5254	4782.00
62.5424	4782.00
62.5594	4782.00
62.5764	4781.00
62.5934	4781.00
62.6104	4781.00
62.6274	4781.00
62.6444	4780.00
62.6614	4780.00
62.6784	4780.00
62.6954	4780.00
62.7124	4779.00
62.7294	4779.00
62.7464	4779.00
62.7634	4779.00
62.7804	4779.00
62.7974	4778.00
62.8144	4778.00
62.8314	4778.00
62.8484	4778.00
62.8654	4778.00
62.8824	4778.00
62.8994	4777.00
62.9164	4777.00
62.9334	4777.00
62.9504	4777.00
62.9674	4777.00
62.9844	4777.00
63.0014	4777.00
63.0184	4777.00
63.0354	4777.00
63.0524	4777.00
63.0694	4777.00
63.0864	4777.00
63.1034	4777.00
63.1204	4777.00
63.1374	4777.00
63.1544	4776.00
63.1714	4776.00
63.1884	4776.00
63.2054	4776.00
63.2224	4776.00
63.2394	4775.00
63.2564	4775.00
63.2734	4775.00
63.2904	4774.00
63.3074	4774.00
63.3244	4774.00
63.3414	4773.00
63.3584	4773.00
63.3754	4772.00
63.3924	4772.00
63.4094	4771.00
63.4264	4771.00
63.4434	4770.00
63.4604	4770.00
63.4774	4769.00
63.4944	4769.00
63.5114	4768.00
63.5284	4768.00
63.5454	4768.00
63.5624	4767.00
63.5794	4767.00
63.5964	4766.00
63.6134	4766.00
63.6304	4766.00
63.6474	4765.00
63.6644	4765.00
63.6814	4765.00
63.6984	4765.00
63.7154	4764.00
63.7324	4764.00
63.7494	4764.00
63.7664	4764.00
63.7834	4763.00
63.8004	4763.00
63.8174	4763.00
63.8344	4763.00
63.8514	4763.00
63.8684	4763.00
63.8854	4763.00
63.9024	4762.00
63.9194	4762.00
63.9364	4762.00
63.9534	4762.00
63.9704	4762.00
63.9874	4762.00
64.0044	4762.00
64.0214	4762.00
64.0384	4762.00
64.0554	4762.00
64.0724	4762.00
64.0894	4762.00
64.1064	4762.00
64.1234	4762.00
64.1404	4761.00
64.1574	4761.00
64.1744	4761.00
64.1914	4761.00
64.2084	4760.00
64.2254	4760.00
64.2424	4760.00
64.2594	4759.00
64.2764	4759.00
64.2934	4758.00
64.3104	4758.00
64.3274	4758.00
64.3444	4757.00
64.3614	4757.00
64.3784	4756.00
64.3954	4756.00
64.4124	4755.00
64.4294	4755.00
64.4464	4755.00
64.4634	4754.00
64.4804	4754.00
64.4974	4753.00
64.5144	4753.00
64.5314	4753.00
64.5484	4752.00
64.5654	4752.00
64.5824	4752.00
64.5994	4751.00
64.6164	4751.00
64.6334	4751.00
64.6504	4750.00
64.6674	4750.00
64.6844	4750.00
64.7014	4750.00
64.7184	4749.00
64.7354	4749.00
64.7524	4749.00
64.7694	4749.00
64.7864	4748.00
64.8034	4748.00
64.8204	4748.00
64.8374	4748.00
64.8544	4748.00
64.8714	4747.00
64.8884	4747.00
64.9054	4747.00
64.9224	4747.00
64.9394	4746.00
64.9564	4746.00
64.9734	4746.00
64.9904	4746.00
65.0074	4746.00
65.0244	4745.00
65.0414	4745.00
65.0584	4745.00
65.0754	4745.00
65.0924	4745.00
65.1094	4744.00
65.1264	4744.00
65.1434	4744.00
65.1604	4744.00
65.1774	4744.00
65.1944	4744.00
65.2114	4743.00
65.2284	4743.00
65.2454	4743.00
65.2624	4743.00
65.2794	4743.00
65.2964	4743.00
65.3134	4742.00
65.3304	4742.00
65.3474	4742.00
65.3644	4742.00
65.3814	4742.00
65.3984	4742.00
65.4154	4742.00
65.4324	4742.00
65.4494	4742.00
65.4664	4742.00
65.4834	4742.00
65.5004	4742.00
65.5174	4742.00
65.5344	4742.00
65.5514	4742.00
65.5684	4742.00
65.5854	4742.00
65.6024	4743.00
65.6194	4743.00
65.6364	4743.00
65.6534	4744.00
65.6704	4744.00
65.6874	4745.00
65.7044	4745.00
65.7214	4746.00
65.7384	4747.00
65.7554	4747.00
65.7724	4748.00
65.7894	4749.00
65.8064	4750.00
65.8234	4750.00
65.8404	4751.00
65.8574	4752.00
65.8744	4753.00
65.8914	4754.00
65.9084	4754.00
65.9254	4755.00
65.9424	4755.00
65.9594	4756.00
65.9764	4756.00
65.9934	4756.00
66.0104	4756.00
66.0274	4756.00
66.0444	4755.00
66.0614	4755.00
66.0784	4754.00
66.0954	4754.00
66.1124	4753.00
66.1294	4752.00
66.1464	4751.00
66.1634	4751.00
66.1804	4750.00
66.1974	4749.00
66.2144	4748.00
66.2314	4747.00
66.2484	4746.00
66.2654	4745.00
66.2824	4744.00
66.2994	4743.00
66.3164	4742.00
66.3334	4741.00
66.3504	4740.00
66.3674	4740.00
66.3844	4739.00
66.4014	4739.00
66.4184	4738.00
66.4354	4738.00
66.4524	4737.00
66.4694	4737.00
66.4864	4737.00
66.5034	4737.00
66.5204	4737.00
66.5374	4737.00
66.5544	4737.00
66.5714	4737.00
66.5884	4737.00
66.6054	4737.00
66.6224	4737.00
66.6394	4738.00
66.6564	4738.00
66.6734	4738.00
66.6904	4738.00
66.7074	4739.00
66.7244	4739.00
66.7414	4739.00
66.7584	4739.00
66.7754	4739.00
66.7924	4739.00
66.8094	4739.00
66.8264	4739.00
66.8434	4739.00
66.8604	4739.00
66.8774	4739.00
66.8944	4738.00
66.9114	4738.00
66.9284	4738.00
66.9454	4737.00
66.9624	4737.00
66.9794	4736.00
66.9964	4736.00
67.0134	4735.00
67.0304	4735.00
67.0474	4734.00
67.0644	4734.00
67.0814	4733.00
67.0984	4733.00
67.1154	4732.00
67.1324	4732.00
67.1494	4731.00
67.1664	4731.00
67.1834	4730.00
67.2004	4730.00
67.2174	4730.00
67.2344	4729.00
67.2514	4729.00
67.2684	4729.00
67.2854	4729.00
67.3024	4728.00
67.3194	4728.00
67.3364	4728.00
67.3534	4728.00
67.3704	4728.00
67.3874	4727.00
67.4044	4727.00
67.4214	4727.00
67.4384	4727.00
67.4554	4727.00
67.4724	4727.00
67.4894	4727.00
67.5064	4727.00
67.5234	4727.00
67.5404	4727.00
67.5574	4727.00
67.5744	4727.00
67.5914	4726.00
67.6084	4726.00
67.6254	4726.00
67.6424	4726.00
67.6594	4726.00
67.6764	4726.00
67.6934	4726.00
67.7104	4726.00
67.7274	4726.00
67.7444	4726.00
67.7614	4726.00
67.7784	4726.00
67.7954	4726.00
67.8124	4726.00
67.8294	4726.00
67.8464	4726.00
67.8634	4726.00
67.8804	4726.00
67.8974	4726.00
67.9144	4726.00
67.9314	4726.00
67.9484	4726.00
67.9654	4726.00
67.9824	4726.00
67.9994	4726.00
68.0164	4726.00
68.0334	4726.00
68.0504	4726.00
68.0674	4726.00
68.0844	4726.00
68.1014	4726.00
68.1184	4726.00
68.1354	4727.00
68.1524	4727.00
68.1694	4727.00
68.1864	4727.00
68.2034	4727.00
68.2204	4727.00
68.2374	4727.00
68.2544	4727.00
68.2714	4727.00
68.2884	4727.00
68.3054	4727.00
68.3224	4727.00
68.3394	4727.00
68.3564	4727.00
68.3734	4727.00
68.3904	4727.00
68.4074	4727.00
68.4244	4728.00
68.4414	4728.00
68.4584	4728.00
68.4754	4728.00
68.4924	4728.00
68.5094	4728.00
68.5264	4728.00
68.5434	4728.00
68.5604	4728.00
68.5774	4728.00
68.5944	4728.00
68.6114	4729.00
68.6284	4729.00
68.6454	4729.00
68.6624	4729.00
68.6794	4729.00
68.6964	4729.00
68.7134	4729.00
68.7304	4729.00
68.7474	4729.00
68.7644	4730.00
68.7814	4730.00
68.7984	4730.00
68.8154	4730.00
68.8324	4730.00
68.8494	4730.00
68.8664	4730.00
68.8834	4730.00
68.9004	4731.00
68.9174	4731.00
68.9344	4731.00
68.9514	4731.00
68.9684	4731.00
68.9854	4731.00
69.0024	4731.00
69.0194	4732.00
69.0364	4732.00
69.0534	4732.00
69.0704	4732.00
69.0874	4732.00
69.1044	4732.00
69.1214	4733.00
69.1384	4733.00
69.1554	4733.00
69.1724	4733.00
69.1894	4733.00
69.2064	4734.00
69.2234	4734.00
69.2404	4734.00
69.2574	4734.00
69.2744	4734.00
69.2914	4735.00
69.3084	4735.00
69.3254	4735.00
69.3424	4735.00
69.3594	4735.00
69.3764	4736.00
69.3934	4736.00
69.4104	4736.00
69.4274	4736.00
69.4444	4736.00
69.4614	4737.00
69.4784	4737.00
69.4954	4737.00
69.5124	4737.00
69.5294	4738.00
69.5464	4738.00
69.5634	4738.00
69.5804	4738.00
69.5974	4739.00
69.6144	4739.00
69.6314	4739.00
69.6484	4739.00
69.6654	4740.00
69.6824	4740.00
69.6994	4740.00
69.7164	4740.00
69.7334	4741.00
69.7504	4741.00
69.7674	4741.00
69.7844	4742.00
69.8014	4742.00
69.8184	4742.00
69.8354	4742.00
69.8524	4743.00
69.8694	4743.00
69.8864	4743.00
69.9034	4744.00
69.9204	4744.00
69.9374	4744.00
69.9544	4744.00
69.9714	4745.00
69.9884	4745.00
