2Theta Intensity
20.0084	6936.00
20.0254	6932.00
20.0424	6927.00
20.0594	6923.00
20.0764	6919.00
20.0934	6914.00
20.1104	6910.00
20.1274	6906.00
20.1444	6901.00
20.1614	6897.00
20.1784	6893.00
20.1954	6889.00
20.2124	6884.00
20.2294	6880.00
20.2464	6876.00
20.2634	6872.00
20.2804	6868.00
20.2974	6863.00
20.3144	6859.00
20.3314	6855.00
20.3484	6851.00
20.3654	6847.00
20.3824	6843.00
20.3994	6838.00
20.4164	6834.00
20.4334	6830.00
20.4504	6826.00
20.4674	6822.00
20.4844	6818.00
20.5014	6814.00
20.5184	6810.00
20.5354	6806.00
20.5524	6802.00
20.5694	6798.00
20.5864	6793.00
20.6034	6789.00
20.6204	6785.00
20.6374	6781.00
20.6544	6777.00
20.6714	6773.00
20.6884	6770.00
20.7054	6766.00
20.7224	6762.00
20.7394	6758.00
20.7564	6754.00
20.7734	6750.00
20.7904	6746.00
20.8074	6742.00
20.8244	6738.00
20.8414	6734.00
20.8584	6730.00
20.8754	6727.00
20.8924	6723.00
20.9094	6719.00
20.9264	6715.00
20.9434	6711.00
20.9604	6708.00
20.9774	6704.00
20.9944	6700.00
21.0114	6696.00
21.0284	6692.00
21.0454	6689.00
21.0624	6685.00
21.0794	6681.00
21.0964	6678.00
21.1134	6674.00
21.1304	6670.00
21.1474	6667.00
21.1644	6663.00
21.1814	6659.00
21.1984	6656.00
21.2154	6652.00
21.2324	6649.00
21.2494	6645.00
21.2664	6641.00
21.2834	6638.00
21.3004	6634.00
21.3174	6631.00
21.3344	6627.00
21.3514	6624.00
21.3684	6621.00
21.3854	6617.00
21.4024	6614.00
21.4194	6610.00
21.4364	6607.00
21.4534	6603.00
21.4704	6600.00
21.4874	6597.00
21.5044	6593.00
21.5214	6590.00
21.5384	6587.00
21.5554	6584.00
21.5724	6580.00
21.5894	6577.00
21.6064	6574.00
21.6234	6571.00
21.6404	6568.00
21.6574	6565.00
21.6744	6561.00
21.6914	6558.00
21.7084	6555.00
21.7254	6552.00
21.7424	6549.00
21.7594	6546.00
21.7764	6543.00
21.7934	6540.00
21.8104	6538.00
21.8274	6535.00
21.8444	6532.00
21.8614	6529.00
21.8784	6526.00
21.8954	6524.00
21.9124	6521.00
21.9294	6518.00
21.9464	6516.00
21.9634	6513.00
21.9804	6510.00
21.9974	6508.00
22.0144	6505.00
22.0314	6503.00
22.0484	6501.00
22.0654	6498.00
22.0824	6496.00
22.0994	6494.00
22.1164	6492.00
22.1334	6490.00
22.1504	6487.00
22.1674	6485.00
22.1844	6484.00
22.2014	6482.00
22.2184	6480.00
22.2354	6478.00
22.2524	6476.00
22.2694	6475.00
22.2864	6473.00
22.3034	6472.00
22.3204	6471.00
22.3374	6469.00
22.3544	6468.00
22.3714	6467.00
22.3884	6466.00
22.4054	6465.00
22.4224	6465.00
22.4394	6464.00
22.4564	6463.00
22.4734	6463.00
22.4904	6463.00
22.5074	6463.00
22.5244	6463.00
22.5414	6463.00
22.5584	6464.00
22.5754	6464.00
22.5924	6465.00
22.6094	6466.00
22.6264	6468.00
22.6434	6469.00
22.6604	6471.00
22.6774	6474.00
22.6944	6476.00
22.7114	6479.00
22.7284	6483.00
22.7454	6486.00
22.7624	6491.00
22.7794	6496.00
22.7964	6502.00
22.8134	6508.00
22.8304	6515.00
22.8474	6524.00
22.8644	6533.00
22.8814	6544.00
22.8984	6556.00
22.9154	6570.00
22.9324	6586.00
22.9494	6604.00
22.9664	6624.00
22.9834	6647.00
23.0004	6674.00
23.0174	6703.00
23.0344	6737.00
23.0514	6774.00
23.0684	6816.00
23.0854	6863.00
23.1024	6916.00
23.1194	6974.00
23.1364	7039.00
23.1534	7110.00
23.1704	7188.00
23.1874	7274.00
23.2044	7367.00
23.2214	7467.00
23.2384	7576.00
23.2554	7692.00
23.2724	7815.00
23.2894	7946.00
23.3064	8084.00
23.3234	8229.00
23.3404	8379.00
23.3574	8534.00
23.3744	8692.00
23.3914	8852.00
23.4084	9012.00
23.4254	9171.00
23.4424	9326.00
23.4594	9474.00
23.4764	9613.00
23.4934	9740.00
23.5104	9851.00
23.5274	9944.00
23.5444	10017.00
23.5614	10066.00
23.5784	10091.00
23.5954	10094.00
23.6124	10075.00
23.6294	10034.00
23.6464	9973.00
23.6634	9895.00
23.6804	9801.00
23.6974	9692.00
23.7144	9572.00
23.7314	9443.00
23.7484	9306.00
23.7654	9163.00
23.7824	9016.00
23.7994	8867.00
23.8164	8718.00
23.8334	8570.00
23.8504	8423.00
23.8674	8280.00
23.8844	8140.00
23.9014	8005.00
23.9184	7874.00
23.9354	7749.00
23.9524	7630.00
23.9694	7517.00
23.9864	7410.00
24.0034	7308.00
24.0204	7214.00
24.0374	7125.00
24.0544	7042.00
24.0714	6965.00
24.0884	6894.00
24.1054	6828.00
24.1224	6767.00
24.1394	6711.00
24.1564	6659.00
24.1734	6612.00
24.1904	6568.00
24.2074	6529.00
24.2244	6492.00
24.2414	6459.00
24.2584	6429.00
24.2754	6401.00
24.2924	6375.00
24.3094	6352.00
24.3264	6330.00
24.3434	6310.00
24.3604	6292.00
24.3774	6275.00
24.3944	6259.00
24.4114	6244.00
24.4284	6231.00
24.4454	6218.00
24.4624	6205.00
24.4794	6194.00
24.4964	6183.00
24.5134	6173.00
24.5304	6163.00
24.5474	6153.00
24.5644	6144.00
24.5814	6136.00
24.5984	6127.00
24.6154	6119.00
24.6324	6112.00
24.6494	6104.00
24.6664	6097.00
24.6834	6090.00
24.7004	6083.00
24.7174	6076.00
24.7344	6069.00
24.7514	6063.00
24.7684	6057.00
24.7854	6051.00
24.8024	6045.00
24.8194	6039.00
24.8364	6033.00
24.8534	6028.00
24.8704	6022.00
24.8874	6017.00
24.9044	6012.00
24.9214	6007.00
24.9384	6002.00
24.9554	5997.00
24.9724	5992.00
24.9894	5987.00
25.0064	5982.00
25.0234	5977.00
25.0404	5973.00
25.0574	5968.00
25.0744	5964.00
25.0914	5959.00
25.1084	5955.00
25.1254	5951.00
25.1424	5947.00
25.1594	5942.00
25.1764	5938.00
25.1934	5934.00
25.2104	5930.00
25.2274	5926.00
25.2444	5922.00
25.2614	5918.00
25.2784	5915.00
25.2954	5911.00
25.3124	5907.00
25.3294	5903.00
25.3464	5900.00
25.3634	5896.00
25.3804	5892.00
25.3974	5889.00
25.4144	5885.00
25.4314	5882.00
25.4484	5878.00
25.4654	5875.00
25.4824	5871.00
25.4994	5868.00
25.5164	5864.00
25.5334	5861.00
25.5504	5858.00
25.5674	5854.00
25.5844	5851.00
25.6014	5848.00
25.6184	5845.00
25.6354	5841.00
25.6524	5838.00
25.6694	5835.00
25.6864	5832.00
25.7034	5829.00
25.7204	5826.00
25.7374	5823.00
25.7544	5819.00
25.7714	5816.00
25.7884	5813.00
25.8054	5810.00
25.8224	5807.00
25.8394	5804.00
25.8564	5801.00
25.8734	5798.00
25.8904	5795.00
25.9074	5792.00
25.9244	5790.00
25.9414	5787.00
25.9584	5784.00
25.9754	5781.00
25.9924	5778.00
26.0094	5775.00
26.0264	5772.00
26.0434	5770.00
26.0604	5767.00
26.0774	5764.00
26.0944	5761.00
26.1114	5758.00
26.1284	5756.00
26.1454	5753.00
26.1624	5750.00
26.1794	5747.00
26.1964	5745.00
26.2134	5742.00
26.2304	5739.00
26.2474	5737.00
26.2644	5734.00
26.2814	5731.00
26.2984	5729.00
26.3154	5726.00
26.3324	5724.00
26.3494	5721.00
26.3664	5718.00
26.3834	5716.00
26.4004	5713.00
26.4174	5711.00
26.4344	5708.00
26.4514	5705.00
26.4684	5703.00
26.4854	5700.00
26.5024	5698.00
26.5194	5695.00
26.5364	5693.00
26.5534	5690.00
26.5704	5688.00
26.5874	5685.00
26.6044	5683.00
26.6214	5680.00
26.6384	5678.00
26.6554	5675.00
26.6724	5673.00
26.6894	5671.00
26.7064	5668.00
26.7234	5666.00
26.7404	5663.00
26.7574	5661.00
26.7744	5658.00
26.7914	5656.00
26.8084	5654.00
26.8254	5652.00
26.8424	5649.00
26.8594	5647.00
26.8764	5645.00
26.8934	5642.00
26.9104	5640.00
26.9274	5638.00
26.9444	5635.00
26.9614	5633.00
26.9784	5631.00
26.9954	5628.00
27.0124	5626.00
27.0294	5624.00
27.0464	5622.00
27.0634	5619.00
27.0804	5617.00
27.0974	5615.00
27.1144	5612.00
27.1314	5610.00
27.1484	5608.00
27.1654	5606.00
27.1824	5603.00
27.1994	5601.00
27.2164	5599.00
27.2334	5597.00
27.2504	5595.00
27.2674	5592.00
27.2844	5590.00
27.3014	5588.00
27.3184	5586.00
27.3354	5584.00
27.3524	5581.00
27.3694	5579.00
27.3864	5577.00
27.4034	5575.00
27.4204	5573.00
27.4374	5571.00
27.4544	5568.00
27.4714	5566.00
27.4884	5564.00
27.5054	5562.00
27.5224	5560.00
27.5394	5558.00
27.5564	5556.00
27.5734	5554.00
27.5904	5551.00
27.6074	5549.00
27.6244	5547.00
27.6414	5545.00
27.6584	5543.00
27.6754	5541.00
27.6924	5539.00
27.7094	5537.00
27.7264	5535.00
27.7434	5533.00
27.7604	5531.00
27.7774	5529.00
27.7944	5527.00
27.8114	5525.00
27.8284	5523.00
27.8454	5521.00
27.8624	5519.00
27.8794	5517.00
27.8964	5515.00
27.9134	5513.00
27.9304	5511.00
27.9474	5509.00
27.9644	5507.00
27.9814	5505.00
27.9984	5503.00
28.0154	5501.00
28.0324	5499.00
28.0494	5497.00
28.0664	5495.00
28.0834	5493.00
28.1004	5491.00
28.1174	5489.00
28.1344	5487.00
28.1514	5485.00
28.1684	5483.00
28.1854	5481.00
28.2024	5479.00
28.2194	5478.00
28.2364	5476.00
28.2534	5474.00
28.2704	5472.00
28.2874	5470.00
28.3044	5468.00
28.3214	5466.00
28.3384	5464.00
28.3554	5462.00
28.3724	5460.00
28.3894	5459.00
28.4064	5457.00
28.4234	5455.00
28.4404	5453.00
28.4574	5451.00
28.4744	5449.00
28.4914	5447.00
28.5084	5446.00
28.5254	5444.00
28.5424	5442.00
28.5594	5440.00
28.5764	5438.00
28.5934	5436.00
28.6104	5435.00
28.6274	5433.00
28.6444	5431.00
28.6614	5429.00
28.6784	5427.00
28.6954	5426.00
28.7124	5424.00
28.7294	5422.00
28.7464	5420.00
28.7634	5419.00
28.7804	5417.00
28.7974	5415.00
28.8144	5413.00
28.8314	5411.00
28.8484	5410.00
28.8654	5408.00
28.8824	5406.00
28.8994	5404.00
28.9164	5403.00
28.9334	5401.00
28.9504	5399.00
28.9674	5398.00
28.9844	5396.00
29.0014	5394.00
29.0184	5392.00
29.0354	5391.00
29.0524	5389.00
29.0694	5387.00
29.0864	5386.00
29.1034	5384.00
29.1204	5382.00
29.1374	5381.00
29.1544	5379.00
29.1714	5377.00
29.1884	5376.00
29.2054	5374.00
29.2224	5372.00
29.2394	5371.00
29.2564	5369.00
29.2734	5367.00
29.2904	5366.00
29.3074	5364.00
29.3244	5362.00
29.3414	5361.00
29.3584	5359.00
29.3754	5357.00
29.3924	5356.00
29.4094	5354.00
29.4264	5353.00
29.4434	5351.00
29.4604	5349.00
29.4774	5348.00
29.4944	5346.00
29.5114	5345.00
29.5284	5343.00
29.5454	5341.00
29.5624	5340.00
29.5794	5338.00
29.5964	5337.00
29.6134	5335.00
29.6304	5330.00
29.6474	5329.00
29.6644	5327.00
29.6814	5326.00
29.6984	5322.00
29.7154	5321.00
29.7324	5319.00
29.7494	5318.00
29.7664	5316.00
29.7834	5315.00
29.8004	5313.00
29.8174	5312.00
29.8344	5310.00
29.8514	5309.00
29.8684	5307.00
29.8854	5306.00
29.9024	5304.00
29.9194	5303.00
29.9364	5301.00
29.9534	5300.00
29.9704	5299.00
29.9874	5297.00
30.0044	5296.00
30.0214	5294.00
30.0384	5293.00
30.0554	5291.00
30.0724	5290.00
30.0894	5288.00
30.1064	5287.00
30.1234	5286.00
30.1404	5284.00
30.1574	5283.00
30.1744	5281.00
30.1914	5280.00
30.2084	5279.00
30.2254	5277.00
30.2424	5276.00
30.2594	5274.00
30.2764	5273.00
30.2934	5272.00
30.3104	5270.00
30.3274	5269.00
30.3444	5267.00
30.3614	5266.00
30.3784	5265.00
30.3954	5263.00
30.4124	5262.00
30.4294	5261.00
30.4464	5259.00
30.4634	5258.00
30.4804	5257.00
30.4974	5255.00
30.5144	5254.00
30.5314	5253.00
30.5484	5251.00
30.5654	5250.00
30.5824	5249.00
30.5994	5247.00
30.6164	5246.00
30.6334	5245.00
30.6504	5243.00
30.6674	5242.00
30.6844	5241.00
30.7014	5240.00
30.7184	5238.00
30.7354	5237.00
30.7524	5236.00
30.7694	5234.00
30.7864	5233.00
30.8034	5232.00
30.8204	5231.00
30.8374	5229.00
30.8544	5228.00
30.8714	5227.00
30.8884	5226.00
30.9054	5225.00
30.9224	5223.00
30.9394	5222.00
30.9564	5221.00
30.9734	5220.00
30.9904	5218.00
31.0074	5217.00
31.0244	5216.00
31.0414	5215.00
31.0584	5214.00
31.0754	5213.00
31.0924	5211.00
31.1094	5210.00
31.1264	5209.00
31.1434	5208.00
31.1604	5207.00
31.1774	5206.00
31.1944	5204.00
31.2114	5203.00
31.2284	5202.00
31.2454	5201.00
31.2624	5200.00
31.2794	5199.00
31.2964	5198.00
31.3134	5197.00
31.3304	5196.00
31.3474	5194.00
31.3644	5193.00
31.3814	5192.00
31.3984	5191.00
31.4154	5190.00
31.4324	5189.00
31.4494	5188.00
31.4664	5187.00
31.4834	5186.00
31.5004	5185.00
31.5174	5184.00
31.5344	5183.00
31.5514	5182.00
31.5684	5181.00
31.5854	5180.00
31.6024	5179.00
31.6194	5178.00
31.6364	5177.00
31.6534	5176.00
31.6704	5175.00
31.6874	5174.00
31.7044	5173.00
31.7214	5173.00
31.7384	5172.00
31.7554	5171.00
31.7724	5170.00
31.7894	5169.00
31.8064	5168.00
31.8234	5167.00
31.8404	5167.00
31.8574	5166.00
31.8744	5165.00
31.8914	5164.00
31.9084	5164.00
31.9254	5163.00
31.9424	5162.00
31.9594	5161.00
31.9764	5161.00
31.9934	5160.00
32.0104	5159.00
32.0274	5159.00
32.0444	5158.00
32.0614	5158.00
32.0784	5157.00
32.0954	5157.00
32.1124	5156.00
32.1294	5156.00
32.1464	5155.00
32.1634	5155.00
32.1804	5155.00
32.1974	5154.00
32.2144	5154.00
32.2314	5154.00
32.2484	5154.00
32.2654	5154.00
32.2824	5154.00
32.2994	5154.00
32.3164	5154.00
32.3334	5154.00
32.3504	5155.00
32.3674	5155.00
32.3844	5156.00
32.4014	5156.00
32.4184	5157.00
32.4354	5158.00
32.4524	5160.00
32.4694	5161.00
32.4864	5163.00
32.5034	5165.00
32.5204	5168.00
32.5374	5170.00
32.5544	5173.00
32.5714	5177.00
32.5884	5180.00
32.6054	5185.00
32.6224	5189.00
32.6394	5195.00
32.6564	5200.00
32.6734	5207.00
32.6904	5214.00
32.7074	5222.00
32.7244	5230.00
32.7414	5239.00
32.7584	5248.00
32.7754	5258.00
32.7924	5269.00
32.8094	5281.00
32.8264	5293.00
32.8434	5306.00
32.8604	5320.00
32.8774	5334.00
32.8944	5348.00
32.9114	5364.00
32.9284	5379.00
32.9454	5395.00
32.9624	5411.00
32.9794	5427.00
32.9964	5443.00
33.0134	5459.00
33.0304	5475.00
33.0474	5490.00
33.0644	5504.00
33.0814	5517.00
33.0984	5529.00
33.1154	5540.00
33.1324	5549.00
33.1494	5556.00
33.1664	5561.00
33.1834	5564.00
33.2004	5565.00
33.2174	5565.00
33.2344	5563.00
33.2514	5559.00
33.2684	5553.00
33.2854	5545.00
33.3024	5537.00
33.3194	5527.00
33.3364	5516.00
33.3534	5505.00
33.3704	5492.00
33.3874	5479.00
33.4044	5465.00
33.4214	5452.00
33.4384	5438.00
33.4554	5424.00
33.4724	5410.00
33.4894	5396.00
33.5064	5382.00
33.5234	5369.00
33.5404	5356.00
33.5574	5344.00
33.5744	5333.00
33.5914	5322.00
33.6084	5311.00
33.6254	5302.00
33.6424	5293.00
33.6594	5285.00
33.6764	5278.00
33.6934	5272.00
33.7104	5266.00
33.7274	5261.00
33.7444	5258.00
33.7614	5255.00
33.7784	5253.00
33.7954	5251.00
33.8124	5251.00
33.8294	5251.00
33.8464	5252.00
33.8634	5253.00
33.8804	5256.00
33.8974	5258.00
33.9144	5262.00
33.9314	5265.00
33.9484	5269.00
33.9654	5274.00
33.9824	5278.00
33.9994	5283.00
34.0164	5287.00
34.0334	5291.00
34.0504	5295.00
34.0674	5299.00
34.0844	5302.00
34.1014	5304.00
34.1184	5305.00
34.1354	5306.00
34.1524	5306.00
34.1694	5305.00
34.1864	5303.00
34.2034	5300.00
34.2204	5297.00
34.2374	5292.00
34.2544	5287.00
34.2714	5282.00
34.2884	5275.00
34.3054	5268.00
34.3224	5261.00
34.3394	5254.00
34.3564	5246.00
34.3734	5237.00
34.3904	5229.00
34.4074	5220.00
34.4244	5212.00
34.4414	5203.00
34.4584	5194.00
34.4754	5186.00
34.4924	5177.00
34.5094	5169.00
34.5264	5160.00
34.5434	5152.00
34.5604	5144.00
34.5774	5137.00
34.5944	5129.00
34.6114	5122.00
34.6284	5115.00
34.6454	5109.00
34.6624	5102.00
34.6794	5096.00
34.6964	5090.00
34.7134	5085.00
34.7304	5079.00
34.7474	5074.00
34.7644	5070.00
34.7814	5065.00
34.7984	5061.00
34.8154	5057.00
34.8324	5053.00
34.8494	5049.00
34.8664	5046.00
34.8834	5042.00
34.9004	5039.00
34.9174	5036.00
34.9344	5034.00
34.9514	5031.00
34.9684	5029.00
34.9854	5026.00
35.0024	5024.00
35.0194	5022.00
35.0364	5020.00
35.0534	5018.00
35.0704	5016.00
35.0874	5014.00
35.1044	5013.00
35.1214	5011.00
35.1384	5010.00
35.1554	5008.00
35.1724	5007.00
35.1894	5005.00
35.2064	5004.00
35.2234	5003.00
35.2404	5002.00
35.2574	5000.00
35.2744	4999.00
35.2914	4998.00
35.3084	4997.00
35.3254	4996.00
35.3424	4995.00
35.3594	4994.00
35.3764	4993.00
35.3934	4992.00
35.4104	4991.00
35.4274	4990.00
35.4444	4989.00
35.4614	4988.00
35.4784	4987.00
35.4954	4986.00
35.5124	4985.00
35.5294	4984.00
35.5464	4983.00
35.5634	4983.00
35.5804	4982.00
35.5974	4981.00
35.6144	4980.00
35.6314	4979.00
35.6484	4978.00
35.6654	4978.00
35.6824	4977.00
35.6994	4976.00
35.7164	4975.00
35.7334	4975.00
35.7504	4974.00
35.7674	4973.00
35.7844	4972.00
35.8014	4972.00
35.8184	4971.00
35.8354	4970.00
35.8524	4969.00
35.8694	4969.00
35.8864	4968.00
35.9034	4967.00
35.9204	4967.00
35.9374	4966.00
35.9544	4965.00
35.9714	4965.00
35.9884	4964.00
36.0054	4963.00
36.0224	4963.00
36.0394	4962.00
36.0564	4961.00
36.0734	4961.00
36.0904	4960.00
36.1074	4960.00
36.1244	4959.00
36.1414	4958.00
36.1584	4958.00
36.1754	4957.00
36.1924	4957.00
36.2094	4956.00
36.2264	4955.00
36.2434	4955.00
36.2604	4954.00
36.2774	4954.00
36.2944	4953.00
36.3114	4952.00
36.3284	4952.00
36.3454	4951.00
36.3624	4951.00
36.3794	4950.00
36.3964	4950.00
36.4134	4949.00
36.4304	4949.00
36.4474	4948.00
36.4644	4948.00
36.4814	4947.00
36.4984	4946.00
36.5154	4946.00
36.5324	4945.00
36.5494	4945.00
36.5664	4944.00
36.5834	4944.00
36.6004	4943.00
36.6174	4943.00
36.6344	4942.00
36.6514	4942.00
36.6684	4941.00
36.6854	4941.00
36.7024	4940.00
36.7194	4940.00
36.7364	4940.00
36.7534	4939.00
36.7704	4939.00
36.7874	4938.00
36.8044	4938.00
36.8214	4937.00
36.8384	4937.00
36.8554	4936.00
36.8724	4936.00
36.8894	4935.00
36.9064	4935.00
36.9234	4934.00
36.9404	4934.00
36.9574	4934.00
36.9744	4933.00
36.9914	4933.00
37.0084	4932.00
37.0254	4932.00
37.0424	4932.00
37.0594	4931.00
37.0764	4931.00
37.0934	4930.00
37.1104	4930.00
37.1274	4929.00
37.1444	4929.00
37.1614	4929.00
37.1784	4928.00
37.1954	4928.00
37.2124	4928.00
37.2294	4927.00
37.2464	4927.00
37.2634	4926.00
37.2804	4926.00
37.2974	4926.00
37.3144	4925.00
37.3314	4925.00
37.3484	4925.00
37.3654	4924.00
37.3824	4924.00
37.3994	4923.00
37.4164	4923.00
37.4334	4923.00
37.4504	4922.00
37.4674	4922.00
37.4844	4922.00
37.5014	4921.00
37.5184	4921.00
37.5354	4921.00
37.5524	4920.00
37.5694	4920.00
37.5864	4920.00
37.6034	4920.00
37.6204	4919.00
37.6374	4919.00
37.6544	4919.00
37.6714	4918.00
37.6884	4918.00
37.7054	4918.00
37.7224	4917.00
37.7394	4917.00
37.7564	4917.00
37.7734	4917.00
37.7904	4916.00
37.8074	4916.00
37.8244	4916.00
37.8414	4916.00
37.8584	4915.00
37.8754	4915.00
37.8924	4915.00
37.9094	4915.00
37.9264	4914.00
37.9434	4914.00
37.9604	4914.00
37.9774	4914.00
37.9944	4913.00
38.0114	4913.00
38.0284	4913.00
38.0454	4913.00
38.0624	4913.00
38.0794	4912.00
38.0964	4912.00
38.1134	4912.00
38.1304	4912.00
38.1474	4912.00
38.1644	4912.00
38.1814	4911.00
38.1984	4911.00
38.2154	4911.00
38.2324	4911.00
38.2494	4911.00
38.2664	4911.00
38.2834	4911.00
38.3004	4910.00
38.3174	4910.00
38.3344	4910.00
38.3514	4910.00
38.3684	4910.00
38.3854	4910.00
38.4024	4910.00
38.4194	4910.00
38.4364	4910.00
38.4534	4910.00
38.4704	4910.00
38.4874	4910.00
38.5044	4910.00
38.5214	4910.00
38.5384	4910.00
38.5554	4910.00
38.5724	4910.00
38.5894	4910.00
38.6064	4910.00
38.6234	4910.00
38.6404	4910.00
38.6574	4910.00
38.6744	4911.00
38.6914	4911.00
38.7084	4911.00
38.7254	4911.00
38.7424	4911.00
38.7594	4912.00
38.7764	4912.00
38.7934	4912.00
38.8104	4913.00
38.8274	4913.00
38.8444	4914.00
38.8614	4914.00
38.8784	4915.00
38.8954	4915.00
38.9124	4916.00
38.9294	4917.00
38.9464	4918.00
38.9634	4919.00
38.9804	4920.00
38.9974	4921.00
39.0144	4922.00
39.0314	4923.00
39.0484	4925.00
39.0654	4926.00
39.0824	4928.00
39.0994	4930.00
39.1164	4932.00
39.1334	4935.00
39.1504	4937.00
39.1674	4940.00
39.1844	4943.00
39.2014	4947.00
39.2184	4950.00
39.2354	4954.00
39.2524	4958.00
39.2694	4963.00
39.2864	4968.00
39.3034	4973.00
39.3204	4979.00
39.3374	4985.00
39.3544	4991.00
39.3714	4998.00
39.3884	5006.00
39.4054	5013.00
39.4224	5021.00
39.4394	5030.00
39.4564	5039.00
39.4734	5048.00
39.4904	5058.00
39.5074	5068.00
39.5244	5078.00
39.5414	5089.00
39.5584	5100.00
39.5754	5111.00
39.5924	5122.00
39.6094	5134.00
39.6264	5145.00
39.6434	5157.00
39.6604	5168.00
39.6774	5179.00
39.6944	5190.00
39.7114	5200.00
39.7284	5210.00
39.7454	5219.00
39.7624	5227.00
39.7794	5234.00
39.7964	5241.00
39.8134	5246.00
39.8304	5250.00
39.8474	5253.00
39.8644	5254.00
39.8814	5255.00
39.8984	5254.00
39.9154	5253.00
39.9324	5250.00
39.9494	5246.00
39.9664	5242.00
39.9834	5236.00
40.0004	5230.00
40.0174	5223.00
40.0344	5216.00
40.0514	5207.00
40.0684	5199.00
40.0854	5190.00
40.1024	5180.00
40.1194	5171.00
40.1364	5162.00
40.1534	5152.00
40.1704	5142.00
40.1874	5132.00
40.2044	5122.00
40.2214	5112.00
40.2384	5102.00
40.2554	5092.00
40.2724	5083.00
40.2894	5074.00
40.3064	5065.00
40.3234	5056.00
40.3404	5047.00
40.3574	5039.00
40.3744	5031.00
40.3914	5023.00
40.4084	5015.00
40.4254	5008.00
40.4424	5001.00
40.4594	4995.00
40.4764	4988.00
40.4934	4982.00
40.5104	4976.00
40.5274	4971.00
40.5444	4966.00
40.5614	4961.00
40.5784	4956.00
40.5954	4952.00
40.6124	4948.00
40.6294	4944.00
40.6464	4940.00
40.6634	4937.00
40.6804	4933.00
40.6974	4930.00
40.7144	4928.00
40.7314	4925.00
40.7484	4923.00
40.7654	4920.00
40.7824	4918.00
40.7994	4916.00
40.8164	4914.00
40.8334	4913.00
40.8504	4911.00
40.8674	4909.00
40.8844	4908.00
40.9014	4907.00
40.9184	4905.00
40.9354	4904.00
40.9524	4903.00
40.9694	4902.00
40.9864	4901.00
41.0034	4900.00
41.0204	4900.00
41.0374	4899.00
41.0544	4898.00
41.0714	4898.00
41.0884	4897.00
41.1054	4896.00
41.1224	4896.00
41.1394	4896.00
41.1564	4895.00
41.1734	4895.00
41.1904	4894.00
41.2074	4894.00
41.2244	4894.00
41.2414	4894.00
41.2584	4894.00
41.2754	4894.00
41.2924	4894.00
41.3094	4894.00
41.3264	4894.00
41.3434	4894.00
41.3604	4894.00
41.3774	4894.00
41.3944	4894.00
41.4114	4895.00
41.4284	4895.00
41.4454	4896.00
41.4624	4896.00
41.4794	4897.00
41.4964	4897.00
41.5134	4898.00
41.5304	4899.00
41.5474	4900.00
41.5644	4901.00
41.5814	4902.00
41.5984	4903.00
41.6154	4903.00
41.6324	4905.00
41.6494	4906.00
41.6664	4907.00
41.6834	4908.00
41.7004	4909.00
41.7174	4911.00
41.7344	4912.00
41.7514	4914.00
41.7684	4915.00
41.7854	4916.00
41.8024	4918.00
41.8194	4919.00
41.8364	4921.00
41.8534	4922.00
41.8704	4923.00
41.8874	4924.00
41.9044	4925.00
41.9214	4926.00
41.9384	4927.00
41.9554	4928.00
41.9724	4929.00
41.9894	4929.00
42.0064	4929.00
42.0234	4929.00
42.0404	4929.00
42.0574	4929.00
42.0744	4929.00
42.0914	4928.00
42.1084	4928.00
42.1254	4927.00
42.1424	4926.00
42.1594	4925.00
42.1764	4924.00
42.1934	4923.00
42.2104	4922.00
42.2274	4920.00
42.2444	4919.00
42.2614	4918.00
42.2784	4916.00
42.2954	4915.00
42.3124	4914.00
42.3294	4912.00
42.3464	4911.00
42.3634	4909.00
42.3804	4908.00
42.3974	4906.00
42.4144	4905.00
42.4314	4903.00
42.4484	4902.00
42.4654	4901.00
42.4824	4899.00
42.4994	4898.00
42.5164	4897.00
42.5334	4896.00
42.5504	4894.00
42.5674	4893.00
42.5844	4892.00
42.6014	4891.00
42.6184	4890.00
42.6354	4889.00
42.6524	4888.00
42.6694	4887.00
42.6864	4887.00
42.7034	4886.00
42.7204	4885.00
42.7374	4884.00
42.7544	4884.00
42.7714	4883.00
42.7884	4882.00
42.8054	4882.00
42.8224	4881.00
42.8394	4881.00
42.8564	4880.00
42.8734	4880.00
42.8904	4879.00
42.9074	4879.00
42.9244	4879.00
42.9414	4878.00
42.9584	4878.00
42.9754	4878.00
42.9924	4877.00
43.0094	4877.00
43.0264	4877.00
43.0434	4877.00
43.0604	4877.00
43.0774	4876.00
43.0944	4876.00
43.1114	4876.00
43.1284	4876.00
43.1454	4876.00
43.1624	4876.00
43.1794	4875.00
43.1964	4875.00
43.2134	4875.00
43.2304	4875.00
43.2474	4875.00
43.2644	4875.00
43.2814	4875.00
43.2984	4875.00
43.3154	4875.00
43.3324	4875.00
43.3494	4874.00
43.3664	4874.00
43.3834	4874.00
43.4004	4874.00
43.4174	4874.00
43.4344	4874.00
43.4514	4874.00
43.4684	4874.00
43.4854	4874.00
43.5024	4874.00
43.5194	4874.00
43.5364	4874.00
43.5534	4874.00
43.5704	4874.00
43.5874	4874.00
43.6044	4874.00
43.6214	4874.00
43.6384	4874.00
43.6554	4874.00
43.6724	4874.00
43.6894	4874.00
43.7064	4874.00
43.7234	4874.00
43.7404	4874.00
43.7574	4874.00
43.7744	4874.00
43.7914	4874.00
43.8084	4874.00
43.8254	4874.00
43.8424	4874.00
43.8594	4874.00
43.8764	4874.00
43.8934	4874.00
43.9104	4874.00
43.9274	4874.00
43.9444	4874.00
43.9614	4874.00
43.9784	4874.00
43.9954	4874.00
44.0124	4874.00
44.0294	4874.00
44.0464	4874.00
44.0634	4874.00
44.0804	4874.00
44.0974	4874.00
44.1144	4874.00
44.1314	4874.00
44.1484	4874.00
44.1654	4874.00
44.1824	4874.00
44.1994	4874.00
44.2164	4874.00
44.2334	4875.00
44.2504	4875.00
44.2674	4875.00
44.2844	4875.00
44.3014	4875.00
44.3184	4875.00
44.3354	4875.00
44.3524	4875.00
44.3694	4875.00
44.3864	4875.00
44.4034	4875.00
44.4204	4875.00
44.4374	4875.00
44.4544	4875.00
44.4714	4875.00
44.4884	4875.00
44.5054	4875.00
44.5224	4875.00
44.5394	4875.00
44.5564	4876.00
44.5734	4876.00
44.5904	4876.00
44.6074	4876.00
44.6244	4876.00
44.6414	4876.00
44.6584	4876.00
44.6754	4876.00
44.6924	4876.00
44.7094	4876.00
44.7264	4876.00
44.7434	4876.00
44.7604	4876.00
44.7774	4876.00
44.7944	4877.00
44.8114	4877.00
44.8284	4877.00
44.8454	4877.00
44.8624	4877.00
44.8794	4877.00
44.8964	4877.00
44.9134	4877.00
44.9304	4878.00
44.9474	4878.00
44.9644	4878.00
44.9814	4878.00
44.9984	4878.00
45.0154	4878.00
45.0324	4878.00
45.0494	4878.00
45.0664	4878.00
45.0834	4879.00
45.1004	4879.00
45.1174	4879.00
45.1344	4879.00
45.1514	4879.00
45.1684	4879.00
45.1854	4879.00
45.2024	4879.00
45.2194	4879.00
45.2364	4879.00
45.2534	4880.00
45.2704	4880.00
45.2874	4880.00
45.3044	4880.00
45.3214	4880.00
45.3384	4880.00
45.3554	4880.00
45.3724	4880.00
45.3894	4880.00
45.4064	4881.00
45.4234	4881.00
45.4404	4881.00
45.4574	4881.00
45.4744	4881.00
45.4914	4881.00
45.5084	4881.00
45.5254	4881.00
45.5424	4882.00
45.5594	4882.00
45.5764	4882.00
45.5934	4882.00
45.6104	4882.00
45.6274	4882.00
45.6444	4882.00
45.6614	4882.00
45.6784	4883.00
45.6954	4883.00
45.7124	4883.00
45.7294	4883.00
45.7464	4883.00
45.7634	4883.00
45.7804	4883.00
45.7974	4884.00
45.8144	4884.00
45.8314	4884.00
45.8484	4884.00
45.8654	4884.00
45.8824	4884.00
45.8994	4884.00
45.9164	4885.00
45.9334	4885.00
45.9504	4885.00
45.9674	4885.00
45.9844	4886.00
46.0014	4886.00
46.0184	4886.00
46.0354	4886.00
46.0524	4886.00
46.0694	4886.00
46.0864	4887.00
46.1034	4887.00
46.1204	4887.00
46.1374	4887.00
46.1544	4887.00
46.1714	4888.00
46.1884	4888.00
46.2054	4888.00
46.2224	4888.00
46.2394	4888.00
46.2564	4889.00
46.2734	4889.00
46.2904	4889.00
46.3074	4889.00
46.3244	4889.00
46.3414	4890.00
46.3584	4890.00
46.3754	4890.00
46.3924	4890.00
46.4094	4891.00
46.4264	4891.00
46.4434	4891.00
46.4604	4891.00
46.4774	4892.00
46.4944	4892.00
46.5114	4892.00
46.5284	4892.00
46.5454	4893.00
46.5624	4893.00
46.5794	4893.00
46.5964	4894.00
46.6134	4894.00
46.6304	4894.00
46.6474	4894.00
46.6644	4895.00
46.6814	4895.00
46.6984	4895.00
46.7154	4896.00
46.7324	4896.00
46.7494	4896.00
46.7664	4897.00
46.7834	4897.00
46.8004	4897.00
46.8174	4898.00
46.8344	4898.00
46.8514	4899.00
46.8684	4899.00
46.8854	4899.00
46.9024	4900.00
46.9194	4900.00
46.9364	4901.00
46.9534	4901.00
46.9704	4902.00
46.9874	4902.00
47.0044	4903.00
47.0214	4903.00
47.0384	4904.00
47.0554	4904.00
47.0724	4905.00
47.0894	4905.00
47.1064	4906.00
47.1234	4907.00
47.1404	4907.00
47.1574	4908.00
47.1744	4909.00
47.1914	4909.00
47.2084	4910.00
47.2254	4911.00
47.2424	4912.00
47.2594	4913.00
47.2764	4913.00
47.2934	4914.00
47.3104	4915.00
47.3274	4916.00
47.3444	4918.00
47.3614	4919.00
47.3784	4920.00
47.3954	4921.00
47.4124	4923.00
47.4294	4924.00
47.4464	4926.00
47.4634	4927.00
47.4804	4929.00
47.4974	4931.00
47.5144	4933.00
47.5314	4935.00
47.5484	4938.00
47.5654	4940.00
47.5824	4943.00
47.5994	4946.00
47.6164	4949.00
47.6334	4952.00
47.6504	4956.00
47.6674	4959.00
47.6844	4963.00
47.7014	4968.00
47.7184	4972.00
47.7354	4977.00
47.7524	4982.00
47.7694	4988.00
47.7864	4994.00
47.8034	5000.00
47.8204	5007.00
47.8374	5014.00
47.8544	5021.00
47.8714	5029.00
47.8884	5037.00
47.9054	5046.00
47.9224	5055.00
47.9394	5064.00
47.9564	5074.00
47.9734	5085.00
47.9904	5095.00
48.0074	5106.00
48.0244	5118.00
48.0414	5130.00
48.0584	5142.00
48.0754	5154.00
48.0924	5167.00
48.1094	5180.00
48.1264	5194.00
48.1434	5207.00
48.1604	5221.00
48.1774	5235.00
48.1944	5248.00
48.2114	5262.00
48.2284	5276.00
48.2454	5289.00
48.2624	5302.00
48.2794	5315.00
48.2964	5327.00
48.3134	5339.00
48.3304	5350.00
48.3474	5360.00
48.3644	5370.00
48.3814	5378.00
48.3984	5386.00
48.4154	5392.00
48.4324	5397.00
48.4494	5400.00
48.4664	5403.00
48.4834	5405.00
48.5004	5405.00
48.5174	5404.00
48.5344	5402.00
48.5514	5400.00
48.5684	5396.00
48.5854	5391.00
48.6024	5385.00
48.6194	5378.00
48.6364	5371.00
48.6534	5363.00
48.6704	5354.00
48.6874	5345.00
48.7044	5335.00
48.7214	5325.00
48.7384	5314.00
48.7554	5303.00
48.7724	5292.00
48.7894	5281.00
48.8064	5269.00
48.8234	5258.00
48.8404	5246.00
48.8574	5234.00
48.8744	5223.00
48.8914	5211.00
48.9084	5200.00
48.9254	5189.00
48.9424	5177.00
48.9594	5166.00
48.9764	5156.00
48.9934	5145.00
49.0104	5135.00
49.0274	5125.00
49.0444	5115.00
49.0614	5106.00
49.0784	5096.00
49.0954	5088.00
49.1124	5079.00
49.1294	5071.00
49.1464	5063.00
49.1634	5055.00
49.1804	5048.00
49.1974	5041.00
49.2144	5034.00
49.2314	5027.00
49.2484	5021.00
49.2654	5015.00
49.2824	5010.00
49.2994	5004.00
49.3164	4999.00
49.3334	4994.00
49.3504	4990.00
49.3674	4986.00
49.3844	4982.00
49.4014	4978.00
49.4184	4974.00
49.4354	4971.00
49.4524	4967.00
49.4694	4964.00
49.4864	4961.00
49.5034	4959.00
49.5204	4956.00
49.5374	4954.00
49.5544	4951.00
49.5714	4949.00
49.5884	4947.00
49.6054	4946.00
49.6224	4944.00
49.6394	4942.00
49.6564	4941.00
49.6734	4939.00
49.6904	4938.00
49.7074	4936.00
49.7244	4935.00
49.7414	4934.00
49.7584	4933.00
49.7754	4932.00
49.7924	4931.00
49.8094	4930.00
49.8264	4929.00
49.8434	4928.00
49.8604	4928.00
49.8774	4927.00
49.8944	4926.00
49.9114	4926.00
49.9284	4925.00
49.9454	4924.00
49.9624	4924.00
49.9794	4923.00
49.9964	4923.00
50.0134	4922.00
50.0304	4922.00
50.0474	4922.00
50.0644	4921.00
50.0814	4921.00
50.0984	4920.00
50.1154	4920.00
50.1324	4920.00
50.1494	4919.00
50.1664	4919.00
50.1834	4919.00
50.2004	4918.00
50.2174	4918.00
50.2344	4918.00
50.2514	4917.00
50.2684	4917.00
50.2854	4917.00
50.3024	4917.00
50.3194	4916.00
50.3364	4916.00
50.3534	4916.00
50.3704	4916.00
50.3874	4916.00
50.4044	4915.00
50.4214	4915.00
50.4384	4915.00
50.4554	4915.00
50.4724	4915.00
50.4894	4915.00
50.5064	4915.00
50.5234	4914.00
50.5404	4914.00
50.5574	4914.00
50.5744	4914.00
50.5914	4914.00
50.6084	4914.00
50.6254	4914.00
50.6424	4914.00
50.6594	4913.00
50.6764	4913.00
50.6934	4913.00
50.7104	4913.00
50.7274	4913.00
50.7444	4913.00
50.7614	4913.00
50.7784	4913.00
50.7954	4913.00
50.8124	4913.00
50.8294	4913.00
50.8464	4912.00
50.8634	4912.00
50.8804	4912.00
50.8974	4912.00
50.9144	4912.00
50.9314	4912.00
50.9484	4912.00
50.9654	4912.00
50.9824	4912.00
50.9994	4912.00
51.0164	4912.00
51.0334	4912.00
51.0504	4912.00
51.0674	4912.00
51.0844	4912.00
51.1014	4912.00
51.1184	4912.00
51.1354	4912.00
51.1524	4912.00
51.1694	4912.00
51.1864	4912.00
51.2034	4912.00
51.2204	4912.00
51.2374	4912.00
51.2544	4912.00
51.2714	4912.00
51.2884	4912.00
51.3054	4912.00
51.3224	4912.00
51.3394	4912.00
51.3564	4912.00
51.3734	4912.00
51.3904	4912.00
51.4074	4912.00
51.4244	4913.00
51.4414	4913.00
51.4584	4913.00
51.4754	4913.00
51.4924	4913.00
51.5094	4913.00
51.5264	4913.00
51.5434	4913.00
51.5604	4913.00
51.5774	4913.00
51.5944	4913.00
51.6114	4913.00
51.6284	4913.00
51.6454	4913.00
51.6624	4914.00
51.6794	4914.00
51.6964	4914.00
51.7134	4914.00
51.7304	4914.00
51.7474	4914.00
51.7644	4914.00
51.7814	4914.00
51.7984	4914.00
51.8154	4915.00
51.8324	4915.00
51.8494	4915.00
51.8664	4915.00
51.8834	4915.00
51.9004	4915.00
51.9174	4915.00
51.9344	4916.00
51.9514	4916.00
51.9684	4916.00
51.9854	4916.00
52.0024	4916.00
52.0194	4916.00
52.0364	4917.00
52.0534	4917.00
52.0704	4917.00
52.0874	4917.00
52.1044	4917.00
52.1214	4918.00
52.1384	4918.00
52.1554	4918.00
52.1724	4918.00
52.1894	4919.00
52.2064	4919.00
52.2234	4919.00
52.2404	4919.00
52.2574	4920.00
52.2744	4920.00
52.2914	4920.00
52.3084	4921.00
52.3254	4921.00
52.3424	4921.00
52.3594	4922.00
52.3764	4922.00
52.3934	4922.00
52.4104	4923.00
52.4274	4923.00
52.4444	4924.00
52.4614	4924.00
52.4784	4925.00
52.4954	4925.00
52.5124	4926.00
52.5294	4926.00
52.5464	4927.00
52.5634	4927.00
52.5804	4928.00
52.5974	4928.00
52.6144	4929.00
52.6314	4930.00
52.6484	4930.00
52.6654	4931.00
52.6824	4932.00
52.6994	4933.00
52.7164	4933.00
52.7334	4934.00
52.7504	4935.00
52.7674	4936.00
52.7844	4937.00
52.8014	4938.00
52.8184	4939.00
52.8354	4941.00
52.8524	4942.00
52.8694	4943.00
52.8864	4945.00
52.9034	4947.00
52.9204	4948.00
52.9374	4950.00
52.9544	4952.00
52.9714	4954.00
52.9884	4956.00
53.0054	4959.00
53.0224	4961.00
53.0394	4964.00
53.0564	4967.00
53.0734	4970.00
53.0904	4973.00
53.1074	4976.00
53.1244	4980.00
53.1414	4984.00
53.1584	4988.00
53.1754	4992.00
53.1924	4997.00
53.2094	5002.00
53.2264	5007.00
53.2434	5013.00
53.2604	5018.00
53.2774	5024.00
53.2944	5031.00
53.3114	5038.00
53.3284	5045.00
53.3454	5052.00
53.3624	5060.00
53.3794	5068.00
53.3964	5077.00
53.4134	5086.00
53.4304	5095.00
53.4474	5104.00
53.4644	5114.00
53.4814	5125.00
53.4984	5135.00
53.5154	5146.00
53.5324	5158.00
53.5494	5169.00
53.5664	5181.00
53.5834	5193.00
53.6004	5205.00
53.6174	5218.00
53.6344	5231.00
53.6514	5243.00
53.6684	5256.00
53.6854	5269.00
53.7024	5282.00
53.7194	5295.00
53.7364	5307.00
53.7534	5320.00
53.7704	5332.00
53.7874	5344.00
53.8044	5356.00
53.8214	5367.00
53.8384	5377.00
53.8554	5387.00
53.8724	5396.00
53.8894	5404.00
53.9064	5412.00
53.9234	5418.00
53.9404	5424.00
53.9574	5428.00
53.9744	5432.00
53.9914	5435.00
54.0084	5436.00
54.0254	5437.00
54.0424	5437.00
54.0594	5436.00
54.0764	5434.00
54.0934	5431.00
54.1104	5428.00
54.1274	5423.00
54.1444	5418.00
54.1614	5413.00
54.1784	5406.00
54.1954	5400.00
54.2124	5392.00
54.2294	5384.00
54.2464	5376.00
54.2634	5368.00
54.2804	5359.00
54.2974	5350.00
54.3144	5341.00
54.3314	5332.00
54.3484	5322.00
54.3654	5313.00
54.3824	5303.00
54.3994	5294.00
54.4164	5285.00
54.4334	5276.00
54.4504	5267.00
54.4674	5258.00
54.4844	5249.00
54.5014	5241.00
54.5184	5233.00
54.5354	5225.00
54.5524	5217.00
54.5694	5210.00
54.5864	5203.00
54.6034	5197.00
54.6204	5191.00
54.6374	5185.00
54.6544	5180.00
54.6714	5175.00
54.6884	5171.00
54.7054	5167.00
54.7224	5163.00
54.7394	5160.00
54.7564	5157.00
54.7734	5155.00
54.7904	5153.00
54.8074	5152.00
54.8244	5151.00
54.8414	5150.00
54.8584	5150.00
54.8754	5151.00
54.8924	5151.00
54.9094	5152.00
54.9264	5153.00
54.9434	5155.00
54.9604	5157.00
54.9774	5159.00
54.9944	5161.00
55.0114	5164.00
55.0284	5166.00
55.0454	5169.00
55.0624	5172.00
55.0794	5175.00
55.0964	5178.00
55.1134	5182.00
55.1304	5185.00
55.1474	5187.00
55.1644	5190.00
55.1814	5193.00
55.1984	5195.00
55.2154	5197.00
55.2324	5199.00
55.2494	5200.00
55.2664	5201.00
55.2834	5202.00
55.3004	5202.00
55.3174	5202.00
55.3344	5201.00
55.3514	5200.00
55.3684	5199.00
55.3854	5197.00
55.4024	5194.00
55.4194	5192.00
55.4364	5189.00
55.4534	5185.00
55.4704	5182.00
55.4874	5178.00
55.5044	5173.00
55.5214	5169.00
55.5384	5164.00
55.5554	5159.00
55.5724	5154.00
55.5894	5148.00
55.6064	5143.00
55.6234	5137.00
55.6404	5131.00
55.6574	5125.00
55.6744	5119.00
55.6914	5113.00
55.7084	5107.00
55.7254	5101.00
55.7424	5095.00
55.7594	5089.00
55.7764	5083.00
55.7934	5077.00
55.8104	5070.00
55.8274	5065.00
55.8444	5059.00
55.8614	5053.00
55.8784	5047.00
55.8954	5041.00
55.9124	5036.00
55.9294	5031.00
55.9464	5025.00
55.9634	5020.00
55.9804	5015.00
55.9974	5010.00
56.0144	5005.00
56.0314	5001.00
56.0484	4996.00
56.0654	4992.00
56.0824	4987.00
56.0994	4983.00
56.1164	4979.00
56.1334	4975.00
56.1504	4972.00
56.1674	4968.00
56.1844	4965.00
56.2014	4961.00
56.2184	4958.00
56.2354	4955.00
56.2524	4952.00
56.2694	4949.00
56.2864	4946.00
56.3034	4944.00
56.3204	4941.00
56.3374	4939.00
56.3544	4936.00
56.3714	4934.00
56.3884	4932.00
56.4054	4930.00
56.4224	4928.00
56.4394	4926.00
56.4564	4924.00
56.4734	4923.00
56.4904	4921.00
56.5074	4919.00
56.5244	4918.00
56.5414	4916.00
56.5584	4915.00
56.5754	4914.00
56.5924	4912.00
56.6094	4911.00
56.6264	4910.00
56.6434	4909.00
56.6604	4908.00
56.6774	4907.00
56.6944	4906.00
56.7114	4905.00
56.7284	4904.00
56.7454	4903.00
56.7624	4902.00
56.7794	4901.00
56.7964	4901.00
56.8134	4900.00
56.8304	4899.00
56.8474	4898.00
56.8644	4898.00
56.8814	4897.00
56.8984	4896.00
56.9154	4896.00
56.9324	4895.00
56.9494	4895.00
56.9664	4894.00
56.9834	4893.00
57.0004	4893.00
57.0174	4892.00
57.0344	4892.00
57.0514	4891.00
57.0684	4891.00
57.0854	4890.00
57.1024	4890.00
57.1194	4889.00
57.1364	4889.00
57.1534	4889.00
57.1704	4888.00
57.1874	4888.00
57.2044	4887.00
57.2214	4887.00
57.2384	4886.00
57.2554	4886.00
57.2724	4886.00
57.2894	4885.00
57.3064	4885.00
57.3234	4885.00
57.3404	4884.00
57.3574	4884.00
57.3744	4883.00
57.3914	4883.00
57.4084	4883.00
57.4254	4882.00
57.4424	4882.00
57.4594	4882.00
57.4764	4882.00
57.4934	4881.00
57.5104	4881.00
57.5274	4881.00
57.5444	4880.00
57.5614	4880.00
57.5784	4880.00
57.5954	4880.00
57.6124	4879.00
57.6294	4879.00
57.6464	4879.00
57.6634	4879.00
57.6804	4879.00
57.6974	4878.00
57.7144	4878.00
57.7314	4878.00
57.7484	4878.00
57.7654	4878.00
57.7824	4878.00
57.7994	4878.00
57.8164	4878.00
57.8334	4878.00
57.8504	4878.00
57.8674	4878.00
57.8844	4878.00
57.9014	4878.00
57.9184	4878.00
57.9354	4878.00
57.9524	4878.00
57.9694	4878.00
57.9864	4878.00
58.0034	4878.00
58.0204	4878.00
58.0374	4879.00
58.0544	4879.00
58.0714	4879.00
58.0884	4880.00
58.1054	4880.00
58.1224	4880.00
58.1394	4881.00
58.1564	4881.00
58.1734	4882.00
58.1904	4882.00
58.2074	4883.00
58.2244	4883.00
58.2414	4883.00
58.2584	4884.00
58.2754	4885.00
58.2924	4885.00
58.3094	4886.00
58.3264	4887.00
58.3434	4888.00
58.3604	4888.00
58.3774	4889.00
58.3944	4890.00
58.4114	4891.00
58.4284	4892.00
58.4454	4893.00
58.4624	4894.00
58.4794	4895.00
58.4964	4896.00
58.5134	4897.00
58.5304	4898.00
58.5474	4899.00
58.5644	4900.00
58.5814	4901.00
58.5984	4902.00
58.6154	4903.00
58.6324	4903.00
58.6494	4904.00
58.6664	4905.00
58.6834	4906.00
58.7004	4907.00
58.7174	4907.00
58.7344	4908.00
58.7514	4908.00
58.7684	4909.00
58.7854	4909.00
58.8024	4909.00
58.8194	4910.00
58.8364	4910.00
58.8534	4910.00
58.8704	4910.00
58.8874	4910.00
58.9044	4909.00
58.9214	4909.00
58.9384	4909.00
58.9554	4908.00
58.9724	4908.00
58.9894	4907.00
59.0064	4907.00
59.0234	4906.00
59.0404	4905.00
59.0574	4904.00
59.0744	4903.00
59.0914	4902.00
59.1084	4901.00
59.1254	4900.00
59.1424	4899.00
59.1594	4898.00
59.1764	4897.00
59.1934	4896.00
59.2104	4895.00
59.2274	4894.00
59.2444	4893.00
59.2614	4892.00
59.2784	4891.00
59.2954	4890.00
59.3124	4889.00
59.3294	4888.00
59.3464	4886.00
59.3634	4885.00
59.3804	4884.00
59.3974	4883.00
59.4144	4882.00
59.4314	4881.00
59.4484	4881.00
59.4654	4880.00
59.4824	4879.00
59.4994	4878.00
59.5164	4877.00
59.5334	4876.00
59.5504	4876.00
59.5674	4875.00
59.5844	4874.00
59.6014	4874.00
59.6184	4873.00
59.6354	4873.00
59.6524	4873.00
59.6694	4872.00
59.6864	4872.00
59.7034	4872.00
59.7204	4872.00
59.7374	4872.00
59.7544	4872.00
59.7714	4872.00
59.7884	4872.00
59.8054	4872.00
59.8224	4872.00
59.8394	4873.00
59.8564	4873.00
59.8734	4873.00
59.8904	4874.00
59.9074	4875.00
59.9244	4876.00
59.9414	4876.00
59.9584	4877.00
59.9754	4878.00
59.9924	4879.00
60.0094	4881.00
60.0264	4882.00
60.0434	4883.00
60.0604	4885.00
60.0774	4886.00
60.0944	4888.00
60.1114	4890.00
60.1284	4892.00
60.1454	4894.00
60.1624	4896.00
60.1794	4898.00
60.1964	4900.00
60.2134	4903.00
60.2304	4905.00
60.2474	4908.00
60.2644	4910.00
60.2814	4913.00
60.2984	4916.00
60.3154	4919.00
60.3324	4922.00
60.3494	4925.00
60.3664	4928.00
60.3834	4931.00
60.4004	4934.00
60.4174	4937.00
60.4344	4940.00
60.4514	4944.00
60.4684	4947.00
60.4854	4950.00
60.5024	4953.00
60.5194	4957.00
60.5364	4960.00
60.5534	4963.00
60.5704	4966.00
60.5874	4969.00
60.6044	4972.00
60.6214	4975.00
60.6384	4978.00
60.6554	4981.00
60.6724	4983.00
60.6894	4986.00
60.7064	4988.00
60.7234	4990.00
60.7404	4992.00
60.7574	4994.00
60.7744	4996.00
60.7914	4998.00
60.8084	5000.00
60.8254	5001.00
60.8424	5003.00
60.8594	5004.00
60.8764	5006.00
60.8934	5007.00
60.9104	5008.00
60.9274	5009.00
60.9444	5010.00
60.9614	5010.00
60.9784	5011.00
60.9954	5012.00
61.0124	5012.00
61.0294	5013.00
61.0464	5013.00
61.0634	5014.00
61.0804	5014.00
61.0974	5014.00
61.1144	5014.00
61.1314	5014.00
61.1484	5014.00
61.1654	5013.00
61.1824	5013.00
61.1994	5012.00
61.2164	5012.00
61.2334	5011.00
61.2504	5010.00
61.2674	5008.00
61.2844	5007.00
61.3014	5006.00
61.3184	5004.00
61.3354	5002.00
61.3524	5000.00
61.3694	4998.00
61.3864	4996.00
61.4034	4993.00
61.4204	4991.00
61.4374	4988.00
61.4544	4985.00
61.4714	4982.00
61.4884	4979.00
61.5054	4976.00
61.5224	4973.00
61.5394	4969.00
61.5564	4966.00
61.5734	4962.00
61.5904	4959.00
61.6074	4955.00
61.6244	4952.00
61.6414	4948.00
61.6584	4944.00
61.6754	4941.00
61.6924	4937.00
61.7094	4933.00
61.7264	4930.00
61.7434	4926.00
61.7604	4922.00
61.7774	4919.00
61.7944	4915.00
61.8114	4911.00
61.8284	4908.00
61.8454	4904.00
61.8624	4901.00
61.8794	4898.00
61.8964	4894.00
61.9134	4891.00
61.9304	4888.00
61.9474	4884.00
61.9644	4881.00
61.9814	4878.00
61.9984	4875.00
62.0154	4872.00
62.0324	4869.00
62.0494	4867.00
62.0664	4864.00
62.0834	4861.00
62.1004	4858.00
62.1174	4856.00
62.1344	4853.00
62.1514	4851.00
62.1684	4849.00
62.1854	4846.00
62.2024	4844.00
62.2194	4842.00
62.2364	4840.00
62.2534	4838.00
62.2704	4836.00
62.2874	4834.00
62.3044	4832.00
62.3214	4830.00
62.3384	4829.00
62.3554	4827.00
62.3724	4825.00
62.3894	4824.00
62.4064	4822.00
62.4234	4821.00
62.4404	4819.00
62.4574	4818.00
62.4744	4817.00
62.4914	4815.00
62.5084	4814.00
62.5254	4813.00
62.5424	4812.00
62.5594	4811.00
62.5764	4810.00
62.5934	4809.00
62.6104	4807.00
62.6274	4807.00
62.6444	4806.00
62.6614	4805.00
62.6784	4804.00
62.6954	4803.00
62.7124	4802.00
62.7294	4801.00
62.7464	4800.00
62.7634	4800.00
62.7804	4799.00
62.7974	4798.00
62.8144	4797.00
62.8314	4797.00
62.8484	4796.00
62.8654	4795.00
62.8824	4795.00
62.8994	4794.00
62.9164	4794.00
62.9334	4793.00
62.9504	4792.00
62.9674	4792.00
62.9844	4791.00
63.0014	4791.00
63.0184	4790.00
63.0354	4790.00
63.0524	4789.00
63.0694	4789.00
63.0864	4788.00
63.1034	4788.00
63.1204	4787.00
63.1374	4787.00
63.1544	4786.00
63.1714	4786.00
63.1884	4786.00
63.2054	4785.00
63.2224	4785.00
63.2394	4784.00
63.2564	4784.00
63.2734	4783.00
63.2904	4783.00
63.3074	4783.00
63.3244	4782.00
63.3414	4782.00
63.3584	4782.00
63.3754	4781.00
63.3924	4781.00
63.4094	4781.00
63.4264	4780.00
63.4434	4780.00
63.4604	4780.00
63.4774	4779.00
63.4944	4779.00
63.5114	4779.00
63.5284	4778.00
63.5454	4778.00
63.5624	4778.00
63.5794	4777.00
63.5964	4777.00
63.6134	4777.00
63.6304	4777.00
63.6474	4777.00
63.6644	4776.00
63.6814	4776.00
63.6984	4776.00
63.7154	4776.00
63.7324	4775.00
63.7494	4775.00
63.7664	4775.00
63.7834	4775.00
63.8004	4775.00
63.8174	4775.00
63.8344	4775.00
63.8514	4774.00
63.8684	4774.00
63.8854	4774.00
63.9024	4774.00
63.9194	4774.00
63.9364	4774.00
63.9534	4774.00
63.9704	4774.00
63.9874	4774.00
64.0044	4774.00
64.0214	4774.00
64.0384	4774.00
64.0554	4774.00
64.0724	4774.00
64.0894	4774.00
64.1064	4774.00
64.1234	4774.00
64.1404	4774.00
64.1574	4774.00
64.1744	4774.00
64.1914	4774.00
64.2084	4774.00
64.2254	4774.00
64.2424	4774.00
64.2594	4774.00
64.2764	4774.00
64.2934	4774.00
64.3104	4774.00
64.3274	4774.00
64.3444	4775.00
64.3614	4775.00
64.3784	4775.00
64.3954	4775.00
64.4124	4775.00
64.4294	4775.00
64.4464	4775.00
64.4634	4775.00
64.4804	4775.00
64.4974	4774.00
64.5144	4774.00
64.5314	4774.00
64.5484	4774.00
64.5654	4774.00
64.5824	4774.00
64.5994	4774.00
64.6164	4773.00
64.6334	4773.00
64.6504	4773.00
64.6674	4773.00
64.6844	4772.00
64.7014	4772.00
64.7184	4772.00
64.7354	4771.00
64.7524	4771.00
64.7694	4770.00
64.7864	4770.00
64.8034	4769.00
64.8204	4769.00
64.8374	4768.00
64.8544	4768.00
64.8714	4767.00
64.8884	4767.00
64.9054	4766.00
64.9224	4766.00
64.9394	4765.00
64.9564	4765.00
64.9734	4764.00
64.9904	4764.00
65.0074	4763.00
65.0244	4763.00
65.0414	4762.00
65.0584	4761.00
65.0754	4761.00
65.0924	4760.00
65.1094	4760.00
65.1264	4759.00
65.1434	4759.00
65.1604	4758.00
65.1774	4758.00
65.1944	4757.00
65.2114	4757.00
65.2284	4756.00
65.2454	4756.00
65.2624	4755.00
65.2794	4755.00
65.2964	4754.00
65.3134	4754.00
65.3304	4753.00
65.3474	4753.00
65.3644	4752.00
65.3814	4752.00
65.3984	4751.00
65.4154	4751.00
65.4324	4751.00
65.4494	4750.00
65.4664	4750.00
65.4834	4749.00
65.5004	4749.00
65.5174	4748.00
65.5344	4748.00
65.5514	4748.00
65.5684	4747.00
65.5854	4747.00
65.6024	4747.00
65.6194	4746.00
65.6364	4746.00
65.6534	4746.00
65.6704	4745.00
65.6874	4745.00
65.7044	4745.00
65.7214	4744.00
65.7384	4744.00
65.7554	4744.00
65.7724	4743.00
65.7894	4743.00
65.8064	4743.00
65.8234	4742.00
65.8404	4742.00
65.8574	4742.00
65.8744	4742.00
65.8914	4741.00
65.9084	4741.00
65.9254	4741.00
65.9424	4741.00
65.9594	4740.00
65.9764	4740.00
65.9934	4740.00
66.0104	4740.00
66.0274	4740.00
66.0444	4739.00
66.0614	4739.00
66.0784	4739.00
66.0954	4739.00
66.1124	4738.00
66.1294	4738.00
66.1464	4738.00
66.1634	4738.00
66.1804	4738.00
66.1974	4738.00
66.2144	4737.00
66.2314	4737.00
66.2484	4737.00
66.2654	4737.00
66.2824	4737.00
66.2994	4737.00
66.3164	4736.00
66.3334	4736.00
66.3504	4736.00
66.3674	4736.00
66.3844	4736.00
66.4014	4735.00
66.4184	4735.00
66.4354	4735.00
66.4524	4735.00
66.4694	4735.00
66.4864	4735.00
66.5034	4734.00
66.5204	4734.00
66.5374	4734.00
66.5544	4734.00
66.5714	4734.00
66.5884	4734.00
66.6054	4734.00
66.6224	4734.00
66.6394	4733.00
66.6564	4733.00
66.6734	4733.00
66.6904	4733.00
66.7074	4733.00
66.7244	4733.00
66.7414	4733.00
66.7584	4733.00
66.7754	4733.00
66.7924	4733.00
66.8094	4732.00
66.8264	4732.00
66.8434	4732.00
66.8604	4732.00
66.8774	4732.00
66.8944	4732.00
66.9114	4732.00
66.9284	4732.00
66.9454	4732.00
66.9624	4732.00
66.9794	4732.00
66.9964	4732.00
67.0134	4732.00
67.0304	4731.00
67.0474	4731.00
67.0644	4731.00
67.0814	4731.00
67.0984	4731.00
67.1154	4731.00
67.1324	4731.00
67.1494	4731.00
67.1664	4731.00
67.1834	4731.00
67.2004	4731.00
67.2174	4731.00
67.2344	4731.00
67.2514	4731.00
67.2684	4731.00
67.2854	4731.00
67.3024	4731.00
67.3194	4731.00
67.3364	4731.00
67.3534	4731.00
67.3704	4731.00
67.3874	4731.00
67.4044	4731.00
67.4214	4731.00
67.4384	4731.00
67.4554	4731.00
67.4724	4731.00
67.4894	4731.00
67.5064	4731.00
67.5234	4731.00
67.5404	4731.00
67.5574	4731.00
67.5744	4731.00
67.5914	4731.00
67.6084	4731.00
67.6254	4731.00
67.6424	4731.00
67.6594	4731.00
67.6764	4731.00
67.6934	4731.00
67.7104	4731.00
67.7274	4731.00
67.7444	4731.00
67.7614	4731.00
67.7784	4731.00
67.7954	4731.00
67.8124	4731.00
67.8294	4731.00
67.8464	4731.00
67.8634	4731.00
67.8804	4731.00
67.8974	4731.00
67.9144	4731.00
67.9314	4732.00
67.9484	4732.00
67.9654	4732.00
67.9824	4732.00
67.9994	4732.00
68.0164	4732.00
68.0334	4732.00
68.0504	4732.00
68.0674	4732.00
68.0844	4732.00
68.1014	4732.00
68.1184	4733.00
68.1354	4733.00
68.1524	4733.00
68.1694	4733.00
68.1864	4733.00
68.2034	4733.00
68.2204	4733.00
68.2374	4734.00
68.2544	4734.00
68.2714	4734.00
68.2884	4734.00
68.3054	4734.00
68.3224	4734.00
68.3394	4735.00
68.3564	4735.00
68.3734	4735.00
68.3904	4735.00
68.4074	4736.00
68.4244	4736.00
68.4414	4736.00
68.4584	4736.00
68.4754	4737.00
68.4924	4737.00
68.5094	4737.00
68.5264	4737.00
68.5434	4738.00
68.5604	4738.00
68.5774	4739.00
68.5944	4739.00
68.6114	4739.00
68.6284	4740.00
68.6454	4740.00
68.6624	4740.00
68.6794	4741.00
68.6964	4741.00
68.7134	4742.00
68.7304	4742.00
68.7474	4743.00
68.7644	4743.00
68.7814	4744.00
68.7984	4745.00
68.8154	4745.00
68.8324	4746.00
68.8494	4747.00
68.8664	4747.00
68.8834	4748.00
68.9004	4749.00
68.9174	4750.00
68.9344	4750.00
68.9514	4751.00
68.9684	4752.00
68.9854	4753.00
69.0024	4754.00
69.0194	4755.00
69.0364	4756.00
69.0534	4757.00
69.0704	4758.00
69.0874	4759.00
69.1044	4761.00
69.1214	4762.00
69.1384	4763.00
69.1554	4764.00
69.1724	4766.00
69.1894	4767.00
69.2064	4769.00
69.2234	4770.00
69.2404	4771.00
69.2574	4773.00
69.2744	4775.00
69.2914	4776.00
69.3084	4778.00
69.3254	4779.00
69.3424	4781.00
69.3594	4783.00
69.3764	4785.00
69.3934	4787.00
69.4104	4788.00
69.4274	4790.00
69.4444	4792.00
69.4614	4794.00
69.4784	4796.00
69.4954	4798.00
69.5124	4800.00
69.5294	4802.00
69.5464	4804.00
69.5634	4806.00
69.5804	4808.00
69.5974	4810.00
69.6144	4811.00
69.6314	4813.00
69.6484	4815.00
69.6654	4817.00
69.6824	4819.00
69.6994	4821.00
69.7164	4822.00
69.7334	4824.00
69.7504	4826.00
69.7674	4827.00
69.7844	4829.00
69.8014	4830.00
69.8184	4832.00
69.8354	4833.00
69.8524	4834.00
69.8694	4835.00
69.8864	4836.00
69.9034	4837.00
69.9204	4837.00
69.9374	4838.00
69.9544	4839.00
69.9714	4839.00
69.9884	4840.00
