2Theta Intensity
20.0084	250.00
20.0254	513.00
20.0424	351.00
20.0594	287.00
20.0764	315.00
20.0934	353.00
20.1104	403.00
20.1274	359.00
20.1444	371.00
20.1614	257.00
20.1784	368.00
20.1954	277.00
20.2124	311.00
20.2294	280.00
20.2464	330.00
20.2634	439.00
20.2804	374.00
20.2974	351.00
20.3144	312.00
20.3314	307.00
20.3484	301.00
20.3654	311.00
20.3824	347.00
20.3994	375.00
20.4164	437.00
20.4334	403.00
20.4504	338.00
20.4674	315.00
20.4844	330.00
20.5014	352.00
20.5184	393.00
20.5354	381.00
20.5524	286.00
20.5694	318.00
20.5864	340.00
20.6034	395.00
20.6204	310.00
20.6374	313.00
20.6544	375.00
20.6714	349.00
20.6884	282.00
20.7054	289.00
20.7224	285.00
20.7394	360.00
20.7564	315.00
20.7734	357.00
20.7904	301.00
20.8074	283.00
20.8244	311.00
20.8414	380.00
20.8584	371.00
20.8754	258.00
20.8924	360.00
20.9094	162.00
20.9264	215.00
20.9434	298.00
20.9604	295.00
20.9774	277.00
20.9944	449.00
21.0114	245.00
21.0284	228.00
21.0454	208.00
21.0624	257.00
21.0794	247.00
21.0964	266.00
21.1134	297.00
21.1304	400.00
21.1474	322.00
21.1644	263.00
21.1814	277.00
21.1984	311.00
21.2154	256.00
21.2324	273.00
21.2494	261.00
21.2664	323.00
21.2834	256.00
21.3004	284.00
21.3174	425.00
21.3344	393.00
21.3514	312.00
21.3684	237.00
21.3854	248.00
21.4024	263.00
21.4194	227.00
21.4364	368.00
21.4534	427.00
21.4704	301.00
21.4874	313.00
21.5044	312.00
21.5214	239.00
21.5384	216.00
21.5554	243.00
21.5724	274.00
21.5894	287.00
21.6064	235.00
21.6234	295.00
21.6404	328.00
21.6574	267.00
21.6744	218.00
21.6914	223.00
21.7084	255.00
21.7254	302.00
21.7424	271.00
21.7594	233.00
21.7764	222.00
21.7934	226.00
21.8104	182.00
21.8274	160.00
21.8444	241.00
21.8614	291.00
21.8784	291.00
21.8954	138.00
21.9124	368.00
21.9294	235.00
21.9464	267.00
21.9634	316.00
21.9804	134.00
21.9974	278.00
22.0144	216.00
22.0314	171.00
22.0484	311.00
22.0654	246.00
22.0824	313.00
22.0994	282.00
22.1164	211.00
22.1334	224.00
22.1504	297.00
22.1674	310.00
22.1844	258.00
22.2014	273.00
22.2184	240.00
22.2354	238.00
22.2524	234.00
22.2694	194.00
22.2864	240.00
22.3034	240.00
22.3204	241.00
22.3374	286.00
22.3544	263.00
22.3714	178.00
22.3884	101.00
22.4054	198.00
22.4224	303.00
22.4394	274.00
22.4564	168.00
22.4734	186.00
22.4904	243.00
22.5074	160.00
22.5244	159.00
22.5414	260.00
22.5584	247.00
22.5754	182.00
22.5924	162.00
22.6094	235.00
22.6264	188.00
22.6434	150.00
22.6604	200.00
22.6774	166.00
22.6944	274.00
22.7114	355.00
22.7284	316.00
22.7454	343.00
22.7624	371.00
22.7794	397.00
22.7964	377.00
22.8134	353.00
22.8304	251.00
22.8474	325.00
22.8644	285.00
22.8814	214.00
22.8984	278.00
22.9154	228.00
22.9324	226.00
22.9494	275.00
22.9664	195.00
22.9834	249.00
23.0004	371.00
23.0174	170.00
23.0344	252.00
23.0514	201.00
23.0684	232.00
23.0854	205.00
23.1024	225.00
23.1194	205.00
23.1364	242.00
23.1534	265.00
23.1704	134.00
23.1874	224.00
23.2044	189.00
23.2214	208.00
23.2384	207.00
23.2554	122.00
23.2724	183.00
23.2894	165.00
23.3064	221.00
23.3234	261.00
23.3404	251.00
23.3574	221.00
23.3744	262.00
23.3914	236.00
23.4084	183.00
23.4254	157.00
23.4424	210.00
23.4594	275.00
23.4764	244.00
23.4934	175.00
23.5104	239.00
23.5274	331.00
23.5444	258.00
23.5614	208.00
23.5784	206.00
23.5954	223.00
23.6124	213.00
23.6294	234.00
23.6464	237.00
23.6634	284.00
23.6804	143.00
23.6974	212.00
23.7144	202.00
23.7314	254.00
23.7484	263.00
23.7654	247.00
23.7824	263.00
23.7994	152.00
23.8164	240.00
23.8334	185.00
23.8504	189.00
23.8674	109.00
23.8844	259.00
23.9014	182.00
23.9184	278.00
23.9354	112.00
23.9524	270.00
23.9694	243.00
23.9864	163.00
24.0034	237.00
24.0204	140.00
24.0374	278.00
24.0544	209.00
24.0714	215.00
24.0884	218.00
24.1054	221.00
24.1224	183.00
24.1394	131.00
24.1564	128.00
24.1734	184.00
24.1904	181.00
24.2074	220.00
24.2244	207.00
24.2414	165.00
24.2584	184.00
24.2754	187.00
24.2924	202.00
24.3094	221.00
24.3264	155.00
24.3434	180.00
24.3604	176.00
24.3774	155.00
24.3944	175.00
24.4114	176.00
24.4284	173.00
24.4454	219.00
24.4624	211.00
24.4794	161.00
24.4964	202.00
24.5134	214.00
24.5304	194.00
24.5474	195.00
24.5644	199.00
24.5814	141.00
24.5984	121.00
24.6154	142.00
24.6324	212.00
24.6494	164.00
24.6664	156.00
24.6834	200.00
24.7004	82.00
24.7174	125.00
24.7344	202.00
24.7514	127.00
24.7684	147.00
24.7854	125.00
24.8024	193.00
24.8194	164.00
24.8364	224.00
24.8534	239.00
24.8704	178.00
24.8874	165.00
24.9044	217.00
24.9214	92.00
24.9384	207.00
24.9554	264.00
24.9724	229.00
24.9894	250.00
25.0064	294.00
25.0234	174.00
25.0404	281.00
25.0574	213.00
25.0744	272.00
25.0914	208.00
25.1084	177.00
25.1254	221.00
25.1424	181.00
25.1594	77.00
25.1764	159.00
25.1934	171.00
25.2104	207.00
25.2274	262.00
25.2444	239.00
25.2614	126.00
25.2784	84.00
25.2954	124.00
25.3124	222.00
25.3294	239.00
25.3464	201.00
25.3634	186.00
25.3804	180.00
25.3974	208.00
25.4144	217.00
25.4314	221.00
25.4484	258.00
25.4654	253.00
25.4824	235.00
25.4994	266.00
25.5164	239.00
25.5334	185.00
25.5504	182.00
25.5674	210.00
25.5844	257.00
25.6014	249.00
25.6184	237.00
25.6354	246.00
25.6524	206.00
25.6694	202.00
25.6864	262.00
25.7034	224.00
25.7204	210.00
25.7374	236.00
25.7544	169.00
25.7714	197.00
25.7884	192.00
25.8054	237.00
25.8224	305.00
25.8394	193.00
25.8564	256.00
25.8734	192.00
25.8904	238.00
25.9074	180.00
25.9244	172.00
25.9414	160.00
25.9584	202.00
25.9754	199.00
25.9924	197.00
26.0094	188.00
26.0264	281.00
26.0434	197.00
26.0604	281.00
26.0774	269.00
26.0944	239.00
26.1114	231.00
26.1284	181.00
26.1454	232.00
26.1624	233.00
26.1794	335.00
26.1964	285.00
26.2134	198.00
26.2304	258.00
26.2474	312.00
26.2644	283.00
26.2814	318.00
26.2984	383.00
26.3154	349.00
26.3324	362.00
26.3494	359.00
26.3664	338.00
26.3834	370.00
26.4004	448.00
26.4174	556.00
26.4344	499.00
26.4514	503.00
26.4684	580.00
26.4854	632.00
26.5024	731.00
26.5194	742.00
26.5364	682.00
26.5534	839.00
26.5704	886.00
26.5874	992.00
26.6044	1129.00
26.6214	1105.00
26.6384	1233.00
26.6554	1308.00
26.6724	1602.00
26.6894	1579.00
26.7064	1563.00
26.7234	1762.00
26.7404	1787.00
26.7574	1674.00
26.7744	1670.00
26.7914	1557.00
26.8084	1423.00
26.8254	1335.00
26.8424	1175.00
26.8594	1183.00
26.8764	958.00
26.8934	888.00
26.9104	837.00
26.9274	790.00
26.9444	625.00
26.9614	563.00
26.9784	530.00
26.9954	537.00
27.0124	518.00
27.0294	431.00
27.0464	398.00
27.0634	319.00
27.0804	332.00
27.0974	343.00
27.1144	414.00
27.1314	346.00
27.1484	315.00
27.1654	340.00
27.1824	328.00
27.1994	315.00
27.2164	277.00
27.2334	334.00
27.2504	326.00
27.2674	318.00
27.2844	331.00
27.3014	275.00
27.3184	219.00
27.3354	259.00
27.3524	317.00
27.3694	282.00
27.3864	277.00
27.4034	292.00
27.4204	276.00
27.4374	279.00
27.4544	264.00
27.4714	286.00
27.4884	381.00
27.5054	313.00
27.5224	281.00
27.5394	237.00
27.5564	193.00
27.5734	178.00
27.5904	266.00
27.6074	241.00
27.6244	195.00
27.6414	257.00
27.6584	203.00
27.6754	216.00
27.6924	233.00
27.7094	327.00
27.7264	195.00
27.7434	269.00
27.7604	245.00
27.7774	248.00
27.7944	195.00
27.8114	216.00
27.8284	247.00
27.8454	164.00
27.8624	171.00
27.8794	243.00
27.8964	283.00
27.9134	160.00
27.9304	230.00
27.9474	173.00
27.9644	289.00
27.9814	255.00
27.9984	289.00
28.0154	297.00
28.0324	227.00
28.0494	212.00
28.0664	190.00
28.0834	202.00
28.1004	206.00
28.1174	232.00
28.1344	187.00
28.1514	306.00
28.1684	236.00
28.1854	219.00
28.2024	177.00
28.2194	197.00
28.2364	210.00
28.2534	227.00
28.2704	228.00
28.2874	182.00
28.3044	206.00
28.3214	236.00
28.3384	253.00
28.3554	277.00
28.3724	267.00
28.3894	272.00
28.4064	281.00
28.4234	273.00
28.4404	275.00
28.4574	241.00
28.4744	213.00
28.4914	210.00
28.5084	238.00
28.5254	246.00
28.5424	273.00
28.5594	236.00
28.5764	257.00
28.5934	209.00
28.6104	246.00
28.6274	207.00
28.6444	316.00
28.6614	301.00
28.6784	353.00
28.6954	293.00
28.7124	251.00
28.7294	256.00
28.7464	334.00
28.7634	211.00
28.7804	248.00
28.7974	230.00
28.8144	322.00
28.8314	172.00
28.8484	212.00
28.8654	314.00
28.8824	199.00
28.8994	328.00
28.9164	208.00
28.9334	256.00
28.9504	192.00
28.9674	220.00
28.9844	182.00
29.0014	184.00
29.0184	168.00
29.0354	189.00
29.0524	166.00
29.0694	172.00
29.0864	133.00
29.1034	277.00
29.1204	279.00
29.1374	218.00
29.1544	259.00
29.1714	240.00
29.1884	256.00
29.2054	236.00
29.2224	257.00
29.2394	240.00
29.2564	243.00
29.2734	237.00
29.2904	277.00
29.3074	248.00
29.3244	216.00
29.3414	207.00
29.3584	217.00
29.3754	202.00
29.3924	218.00
29.4094	244.00
29.4264	170.00
29.4434	174.00
29.4604	196.00
29.4774	216.00
29.4944	179.00
29.5114	256.00
29.5284	252.00
29.5454	246.00
29.5624	266.00
29.5794	271.00
29.5964	277.00
29.6134	270.00
29.6304	249.00
29.6474	186.00
29.6644	183.00
29.6814	244.00
29.6984	182.00
29.7154	142.00
29.7324	261.00
29.7494	238.00
29.7664	252.00
29.7834	277.00
29.8004	262.00
29.8174	174.00
29.8344	124.00
29.8514	194.00
29.8684	225.00
29.8854	266.00
29.9024	205.00
29.9194	217.00
29.9364	282.00
29.9534	280.00
29.9704	269.00
29.9874	306.00
30.0044	309.00
30.0214	220.00
30.0384	201.00
30.0554	206.00
30.0724	246.00
30.0894	248.00
30.1064	230.00
30.1234	137.00
30.1404	153.00
30.1574	193.00
30.1744	194.00
30.1914	255.00
30.2084	255.00
30.2254	201.00
30.2424	253.00
30.2594	220.00
30.2764	189.00
30.2934	253.00
30.3104	240.00
30.3274	225.00
30.3444	241.00
30.3614	168.00
30.3784	181.00
30.3954	201.00
30.4124	253.00
30.4294	244.00
30.4464	221.00
30.4634	217.00
30.4804	279.00
30.4974	265.00
30.5144	233.00
30.5314	269.00
30.5484	248.00
30.5654	246.00
30.5824	258.00
30.5994	246.00
30.6164	238.00
30.6334	285.00
30.6504	339.00
30.6674	292.00
30.6844	249.00
30.7014	227.00
30.7184	311.00
30.7354	256.00
30.7524	367.00
30.7694	300.00
30.7864	304.00
30.8034	376.00
30.8204	361.00
30.8374	425.00
30.8544	368.00
30.8714	412.00
30.8884	477.00
30.9054	530.00
30.9224	448.00
30.9394	474.00
30.9564	533.00
30.9734	554.00
30.9904	556.00
31.0074	563.00
31.0244	546.00
31.0414	597.00
31.0584	562.00
31.0754	509.00
31.0924	481.00
31.1094	453.00
31.1264	501.00
31.1434	456.00
31.1604	395.00
31.1774	376.00
31.1944	376.00
31.2114	346.00
31.2284	282.00
31.2454	295.00
31.2624	289.00
31.2794	254.00
31.2964	219.00
31.3134	260.00
31.3304	267.00
31.3474	284.00
31.3644	267.00
31.3814	230.00
31.3984	230.00
31.4154	254.00
31.4324	283.00
31.4494	295.00
31.4664	293.00
31.4834	230.00
31.5004	226.00
31.5174	259.00
31.5344	213.00
31.5514	209.00
31.5684	171.00
31.5854	178.00
31.6024	191.00
31.6194	218.00
31.6364	169.00
31.6534	173.00
31.6704	299.00
31.6874	295.00
31.7044	246.00
31.7214	279.00
31.7384	232.00
31.7554	224.00
31.7724	200.00
31.7894	275.00
31.8064	172.00
31.8234	160.00
31.8404	176.00
31.8574	155.00
31.8744	283.00
31.8914	359.00
31.9084	247.00
31.9254	171.00
31.9424	229.00
31.9594	297.00
31.9764	171.00
31.9934	211.00
32.0104	181.00
32.0274	117.00
32.0444	202.00
32.0614	238.00
32.0784	270.00
32.0954	214.00
32.1124	206.00
32.1294	245.00
32.1464	176.00
32.1634	266.00
32.1804	207.00
32.1974	209.00
32.2144	245.00
32.2314	239.00
32.2484	221.00
32.2654	231.00
32.2824	229.00
32.2994	217.00
32.3164	230.00
32.3334	243.00
32.3504	183.00
32.3674	155.00
32.3844	224.00
32.4014	248.00
32.4184	165.00
32.4354	186.00
32.4524	213.00
32.4694	186.00
32.4864	257.00
32.5034	216.00
32.5204	255.00
32.5374	243.00
32.5544	251.00
32.5714	129.00
32.5884	250.00
32.6054	279.00
32.6224	261.00
32.6394	214.00
32.6564	190.00
32.6734	291.00
32.6904	215.00
32.7074	119.00
32.7244	186.00
32.7414	178.00
32.7584	241.00
32.7754	275.00
32.7924	283.00
32.8094	248.00
32.8264	220.00
32.8434	246.00
32.8604	324.00
32.8774	271.00
32.8944	286.00
32.9114	251.00
32.9284	201.00
32.9454	229.00
32.9624	248.00
32.9794	249.00
32.9964	242.00
33.0134	250.00
33.0304	258.00
33.0474	290.00
33.0644	240.00
33.0814	240.00
33.0984	236.00
33.1154	215.00
33.1324	207.00
33.1494	271.00
33.1664	292.00
33.1834	328.00
33.2004	282.00
33.2174	219.00
33.2344	272.00
33.2514	276.00
33.2684	238.00
33.2854	286.00
33.3024	346.00
33.3194	293.00
33.3364	223.00
33.3534	288.00
33.3704	254.00
33.3874	279.00
33.4044	314.00
33.4214	284.00
33.4384	330.00
33.4554	361.00
33.4724	335.00
33.4894	271.00
33.5064	266.00
33.5234	243.00
33.5404	255.00
33.5574	292.00
33.5744	239.00
33.5914	281.00
33.6084	314.00
33.6254	242.00
33.6424	304.00
33.6594	290.00
33.6764	340.00
33.6934	169.00
33.7104	220.00
33.7274	251.00
33.7444	237.00
33.7614	319.00
33.7784	263.00
33.7954	278.00
33.8124	283.00
33.8294	321.00
33.8464	363.00
33.8634	204.00
33.8804	194.00
33.8974	361.00
33.9144	284.00
33.9314	289.00
33.9484	262.00
33.9654	343.00
33.9824	345.00
33.9994	258.00
34.0164	286.00
34.0334	225.00
34.0504	291.00
34.0674	278.00
34.0844	207.00
34.1014	230.00
34.1184	317.00
34.1354	289.00
34.1524	309.00
34.1694	318.00
34.1864	321.00
34.2034	260.00
34.2204	229.00
34.2374	199.00
34.2544	201.00
34.2714	258.00
34.2884	298.00
34.3054	300.00
34.3224	213.00
34.3394	278.00
34.3564	304.00
34.3734	298.00
34.3904	331.00
34.4074	325.00
34.4244	305.00
34.4414	243.00
34.4584	252.00
34.4754	243.00
34.4924	259.00
34.5094	264.00
34.5264	283.00
34.5434	218.00
34.5604	293.00
34.5774	266.00
34.5944	365.00
34.6114	313.00
34.6284	337.00
34.6454	339.00
34.6624	261.00
34.6794	349.00
34.6964	269.00
34.7134	258.00
34.7304	295.00
34.7474	312.00
34.7644	209.00
34.7814	365.00
34.7984	357.00
34.8154	227.00
34.8324	293.00
34.8494	316.00
34.8664	253.00
34.8834	193.00
34.9004	292.00
34.9174	258.00
34.9344	241.00
34.9514	382.00
34.9684	292.00
34.9854	239.00
35.0024	217.00
35.0194	249.00
35.0364	314.00
35.0534	296.00
35.0704	299.00
35.0874	384.00
35.1044	314.00
35.1214	287.00
35.1384	255.00
35.1554	254.00
35.1724	317.00
35.1894	313.00
35.2064	272.00
35.2234	273.00
35.2404	279.00
35.2574	249.00
35.2744	255.00
35.2914	281.00
35.3084	257.00
35.3254	239.00
35.3424	251.00
35.3594	263.00
35.3764	309.00
35.3934	361.00
35.4104	340.00
35.4274	316.00
35.4444	264.00
35.4614	325.00
35.4784	365.00
35.4954	341.00
35.5124	317.00
35.5294	287.00
35.5464	261.00
35.5634	346.00
35.5804	340.00
35.5974	340.00
35.6144	288.00
35.6314	317.00
35.6484	299.00
35.6654	258.00
35.6824	370.00
35.6994	289.00
35.7164	337.00
35.7334	328.00
35.7504	416.00
35.7674	369.00
35.7844	310.00
35.8014	284.00
35.8184	293.00
35.8354	261.00
35.8524	303.00
35.8694	289.00
35.8864	276.00
35.9034	316.00
35.9204	314.00
35.9374	310.00
35.9544	205.00
35.9714	318.00
35.9884	336.00
36.0054	300.00
36.0224	307.00
36.0394	294.00
36.0564	279.00
36.0734	255.00
36.0904	255.00
36.1074	251.00
36.1244	242.00
36.1414	288.00
36.1584	283.00
36.1754	233.00
36.1924	282.00
36.2094	233.00
36.2264	236.00
36.2434	236.00
36.2604	231.00
36.2774	284.00
36.2944	308.00
36.3114	311.00
36.3284	320.00
36.3454	309.00
36.3624	317.00
36.3794	276.00
36.3964	277.00
36.4134	286.00
36.4304	246.00
36.4474	289.00
36.4644	275.00
36.4814	256.00
36.4984	286.00
36.5154	290.00
36.5324	287.00
36.5494	262.00
36.5664	308.00
36.5834	285.00
36.6004	305.00
36.6174	212.00
36.6344	256.00
36.6514	216.00
36.6684	281.00
36.6854	290.00
36.7024	280.00
36.7194	359.00
36.7364	326.00
36.7534	223.00
36.7704	222.00
36.7874	246.00
36.8044	227.00
36.8214	258.00
36.8384	279.00
36.8554	258.00
36.8724	237.00
36.8894	265.00
36.9064	279.00
36.9234	208.00
36.9404	272.00
36.9574	260.00
36.9744	244.00
36.9914	240.00
37.0084	257.00
37.0254	292.00
37.0424	256.00
37.0594	289.00
37.0764	267.00
37.0934	233.00
37.1104	313.00
37.1274	285.00
37.1444	229.00
37.1614	246.00
37.1784	218.00
37.1954	222.00
37.2124	232.00
37.2294	247.00
37.2464	282.00
37.2634	314.00
37.2804	259.00
37.2974	228.00
37.3144	270.00
37.3314	277.00
37.3484	239.00
37.3654	267.00
37.3824	276.00
37.3994	285.00
37.4164	276.00
37.4334	225.00
37.4504	254.00
37.4674	299.00
37.4844	316.00
37.5014	290.00
37.5184	268.00
37.5354	320.00
37.5524	306.00
37.5694	189.00
37.5864	255.00
37.6034	282.00
37.6204	294.00
37.6374	258.00
37.6544	298.00
37.6714	267.00
37.6884	348.00
37.7054	200.00
37.7224	280.00
37.7394	199.00
37.7564	320.00
37.7734	267.00
37.7904	217.00
37.8074	262.00
37.8244	233.00
37.8414	218.00
37.8584	311.00
37.8754	302.00
37.8924	265.00
37.9094	266.00
37.9264	273.00
37.9434	260.00
37.9604	279.00
37.9774	242.00
37.9944	225.00
38.0114	287.00
38.0284	271.00
38.0454	286.00
38.0624	238.00
38.0794	267.00
38.0964	258.00
38.1134	261.00
38.1304	229.00
38.1474	223.00
38.1644	257.00
38.1814	258.00
38.1984	232.00
38.2154	281.00
38.2324	294.00
38.2494	256.00
38.2664	247.00
38.2834	258.00
38.3004	260.00
38.3174	250.00
38.3344	226.00
38.3514	246.00
38.3684	305.00
38.3854	304.00
38.4024	259.00
38.4194	278.00
38.4364	319.00
38.4534	271.00
38.4704	249.00
38.4874	298.00
38.5044	252.00
38.5214	248.00
38.5384	213.00
38.5554	217.00
38.5724	294.00
38.5894	223.00
38.6064	266.00
38.6234	257.00
38.6404	176.00
38.6574	212.00
38.6744	259.00
38.6914	311.00
38.7084	185.00
38.7254	211.00
38.7424	230.00
38.7594	213.00
38.7764	235.00
38.7934	237.00
38.8104	257.00
38.8274	238.00
38.8444	281.00
38.8614	262.00
38.8784	317.00
38.8954	205.00
38.9124	232.00
38.9294	277.00
38.9464	249.00
38.9634	250.00
38.9804	301.00
38.9974	239.00
39.0144	267.00
39.0314	300.00
39.0484	294.00
39.0654	206.00
39.0824	215.00
39.0994	208.00
39.1164	248.00
39.1334	297.00
39.1504	292.00
39.1674	279.00
39.1844	294.00
39.2014	272.00
39.2184	289.00
39.2354	302.00
39.2524	279.00
39.2694	290.00
39.2864	261.00
39.3034	249.00
39.3204	227.00
39.3374	235.00
39.3544	235.00
39.3714	315.00
39.3884	298.00
39.4054	240.00
39.4224	209.00
39.4394	252.00
39.4564	360.00
39.4734	341.00
39.4904	276.00
39.5074	280.00
39.5244	257.00
39.5414	229.00
39.5584	302.00
39.5754	235.00
39.5924	233.00
39.6094	298.00
39.6264	295.00
39.6434	252.00
39.6604	268.00
39.6774	221.00
39.6944	239.00
39.7114	312.00
39.7284	295.00
39.7454	214.00
39.7624	264.00
39.7794	348.00
39.7964	257.00
39.8134	287.00
39.8304	284.00
39.8474	291.00
39.8644	336.00
39.8814	311.00
39.8984	289.00
39.9154	289.00
39.9324	323.00
39.9494	283.00
39.9664	301.00
39.9834	248.00
40.0004	242.00
40.0174	286.00
40.0344	268.00
40.0514	304.00
40.0684	307.00
40.0854	287.00
40.1024	267.00
40.1194	270.00
40.1364	253.00
40.1534	273.00
40.1704	291.00
40.1874	262.00
40.2044	277.00
40.2214	253.00
40.2384	277.00
40.2554	272.00
40.2724	263.00
40.2894	258.00
40.3064	239.00
40.3234	276.00
40.3404	248.00
40.3574	312.00
40.3744	286.00
40.3914	281.00
40.4084	279.00
40.4254	222.00
40.4424	240.00
40.4594	219.00
40.4764	266.00
40.4934	246.00
40.5104	330.00
40.5274	291.00
40.5444	251.00
40.5614	246.00
40.5784	360.00
40.5954	244.00
40.6124	355.00
40.6294	292.00
40.6464	362.00
40.6634	386.00
40.6804	235.00
40.6974	203.00
40.7144	217.00
40.7314	246.00
40.7484	236.00
40.7654	228.00
40.7824	257.00
40.7994	214.00
40.8164	264.00
40.8334	242.00
40.8504	252.00
40.8674	228.00
40.8844	205.00
40.9014	250.00
40.9184	265.00
40.9354	300.00
40.9524	251.00
40.9694	241.00
40.9864	293.00
41.0034	342.00
41.0204	298.00
41.0374	294.00
41.0544	280.00
41.0714	261.00
41.0884	214.00
41.1054	247.00
41.1224	294.00
41.1394	319.00
41.1564	314.00
41.1734	313.00
41.1904	300.00
41.2074	264.00
41.2244	250.00
41.2414	179.00
41.2584	225.00
41.2754	310.00
41.2924	318.00
41.3094	263.00
41.3264	280.00
41.3434	293.00
41.3604	279.00
41.3774	275.00
41.3944	268.00
41.4114	289.00
41.4284	254.00
41.4454	287.00
41.4624	252.00
41.4794	203.00
41.4964	212.00
41.5134	293.00
41.5304	231.00
41.5474	243.00
41.5644	305.00
41.5814	210.00
41.5984	262.00
41.6154	191.00
41.6324	305.00
41.6494	184.00
41.6664	229.00
41.6834	315.00
41.7004	275.00
41.7174	245.00
41.7344	272.00
41.7514	343.00
41.7684	262.00
41.7854	300.00
41.8024	342.00
41.8194	328.00
41.8364	323.00
41.8534	276.00
41.8704	281.00
41.8874	269.00
41.9044	284.00
41.9214	285.00
41.9384	263.00
41.9554	253.00
41.9724	227.00
41.9894	313.00
42.0064	222.00
42.0234	278.00
42.0404	346.00
42.0574	351.00
42.0744	316.00
42.0914	272.00
42.1084	327.00
42.1254	276.00
42.1424	253.00
42.1594	328.00
42.1764	374.00
42.1934	302.00
42.2104	262.00
42.2274	267.00
42.2444	325.00
42.2614	315.00
42.2784	295.00
42.2954	269.00
42.3124	295.00
42.3294	302.00
42.3464	264.00
42.3634	301.00
42.3804	275.00
42.3974	283.00
42.4144	331.00
42.4314	301.00
42.4484	318.00
42.4654	356.00
42.4824	364.00
42.4994	337.00
42.5164	328.00
42.5334	280.00
42.5504	251.00
42.5674	370.00
42.5844	296.00
42.6014	301.00
42.6184	373.00
42.6354	322.00
42.6524	336.00
42.6694	331.00
42.6864	353.00
42.7034	357.00
42.7204	350.00
42.7374	285.00
42.7544	345.00
42.7714	355.00
42.7884	315.00
42.8054	404.00
42.8224	288.00
42.8394	331.00
42.8564	341.00
42.8734	375.00
42.8904	335.00
42.9074	349.00
42.9244	308.00
42.9414	347.00
42.9584	360.00
42.9754	366.00
42.9924	365.00
43.0094	414.00
43.0264	389.00
43.0434	361.00
43.0604	434.00
43.0774	381.00
43.0944	337.00
43.1114	371.00
43.1284	377.00
43.1454	365.00
43.1624	403.00
43.1794	452.00
43.1964	452.00
43.2134	418.00
43.2304	401.00
43.2474	431.00
43.2644	405.00
43.2814	380.00
43.2984	338.00
43.3154	378.00
43.3324	447.00
43.3494	431.00
43.3664	395.00
43.3834	392.00
43.4004	435.00
43.4174	443.00
43.4344	400.00
43.4514	403.00
43.4684	423.00
43.4854	355.00
43.5024	355.00
43.5194	387.00
43.5364	367.00
43.5534	423.00
43.5704	422.00
43.5874	437.00
43.6044	387.00
43.6214	318.00
43.6384	364.00
43.6554	359.00
43.6724	410.00
43.6894	384.00
43.7064	403.00
43.7234	460.00
43.7404	394.00
43.7574	439.00
43.7744	446.00
43.7914	429.00
43.8084	416.00
43.8254	476.00
43.8424	463.00
43.8594	462.00
43.8764	509.00
43.8934	472.00
43.9104	490.00
43.9274	521.00
43.9444	473.00
43.9614	522.00
43.9784	559.00
43.9954	585.00
44.0124	608.00
44.0294	613.00
44.0464	614.00
44.0634	657.00
44.0804	766.00
44.0974	776.00
44.1144	862.00
44.1314	956.00
44.1484	1047.00
44.1654	1171.00
44.1824	1262.00
44.1994	1463.00
44.2164	1617.00
44.2334	1699.00
44.2504	1923.00
44.2674	2321.00
44.2844	2753.00
44.3014	3183.00
44.3184	3622.00
44.3354	4071.00
44.3524	4641.00
44.3694	5118.00
44.3864	5493.00
44.4034	5691.00
44.4204	5626.00
44.4374	5598.00
44.4544	5422.00
44.4714	5288.00
44.4884	4991.00
44.5054	4778.00
44.5224	4352.00
44.5394	4007.00
44.5564	3679.00
44.5734	3349.00
44.5904	2972.00
44.6074	2676.00
44.6244	2252.00
44.6414	1983.00
44.6584	1691.00
44.6754	1706.00
44.6924	1392.00
44.7094	1340.00
44.7264	1110.00
44.7434	1098.00
44.7604	1093.00
44.7774	957.00
44.7944	867.00
44.8114	872.00
44.8284	776.00
44.8454	711.00
44.8624	638.00
44.8794	562.00
44.8964	608.00
44.9134	566.00
44.9304	498.00
44.9474	500.00
44.9644	486.00
44.9814	448.00
44.9984	427.00
45.0154	428.00
45.0324	416.00
45.0494	435.00
45.0664	407.00
45.0834	379.00
45.1004	332.00
45.1174	355.00
45.1344	385.00
45.1514	357.00
45.1684	361.00
45.1854	367.00
45.2024	354.00
45.2194	341.00
45.2364	314.00
45.2534	335.00
45.2704	341.00
45.2874	300.00
45.3044	335.00
45.3214	292.00
45.3384	310.00
45.3554	271.00
45.3724	266.00
45.3894	307.00
45.4064	307.00
45.4234	294.00
45.4404	274.00
45.4574	350.00
45.4744	324.00
45.4914	327.00
45.5084	322.00
45.5254	276.00
45.5424	338.00
45.5594	367.00
45.5764	266.00
45.5934	303.00
45.6104	235.00
45.6274	281.00
45.6444	381.00
45.6614	298.00
45.6784	289.00
45.6954	270.00
45.7124	276.00
45.7294	250.00
45.7464	290.00
45.7634	308.00
45.7804	282.00
45.7974	286.00
45.8144	319.00
45.8314	312.00
45.8484	290.00
45.8654	217.00
45.8824	247.00
45.8994	308.00
45.9164	288.00
45.9334	304.00
45.9504	277.00
45.9674	253.00
45.9844	288.00
46.0014	351.00
46.0184	332.00
46.0354	263.00
46.0524	249.00
46.0694	262.00
46.0864	256.00
46.1034	251.00
46.1204	255.00
46.1374	236.00
46.1544	244.00
46.1714	271.00
46.1884	258.00
46.2054	272.00
46.2224	265.00
46.2394	273.00
46.2564	317.00
46.2734	332.00
46.2904	280.00
46.3074	315.00
46.3244	291.00
46.3414	300.00
46.3584	294.00
46.3754	292.00
46.3924	286.00
46.4094	251.00
46.4264	254.00
46.4434	234.00
46.4604	269.00
46.4774	305.00
46.4944	312.00
46.5114	290.00
46.5284	168.00
46.5454	284.00
46.5624	223.00
46.5794	234.00
46.5964	259.00
46.6134	189.00
46.6304	330.00
46.6474	206.00
46.6644	304.00
46.6814	268.00
46.6984	202.00
46.7154	243.00
46.7324	285.00
46.7494	272.00
46.7664	316.00
46.7834	228.00
46.8004	247.00
46.8174	201.00
46.8344	260.00
46.8514	206.00
46.8684	278.00
46.8854	261.00
46.9024	217.00
46.9194	229.00
46.9364	315.00
46.9534	320.00
46.9704	295.00
46.9874	283.00
47.0044	235.00
47.0214	230.00
47.0384	267.00
47.0554	326.00
47.0724	304.00
47.0894	258.00
47.1064	289.00
47.1234	271.00
47.1404	261.00
47.1574	232.00
47.1744	256.00
47.1914	250.00
47.2084	252.00
47.2254	234.00
47.2424	231.00
47.2594	213.00
47.2764	279.00
47.2934	296.00
47.3104	206.00
47.3274	214.00
47.3444	272.00
47.3614	245.00
47.3784	274.00
47.3954	218.00
47.4124	300.00
47.4294	241.00
47.4464	300.00
47.4634	312.00
47.4804	321.00
47.4974	253.00
47.5144	179.00
47.5314	206.00
47.5484	280.00
47.5654	248.00
47.5824	300.00
47.5994	223.00
47.6164	278.00
47.6334	289.00
47.6504	271.00
47.6674	266.00
47.6844	296.00
47.7014	280.00
47.7184	268.00
47.7354	276.00
47.7524	277.00
47.7694	272.00
47.7864	265.00
47.8034	231.00
47.8204	295.00
47.8374	276.00
47.8544	298.00
47.8714	307.00
47.8884	302.00
47.9054	287.00
47.9224	252.00
47.9394	218.00
47.9564	242.00
47.9734	262.00
47.9904	283.00
48.0074	300.00
48.0244	282.00
48.0414	253.00
48.0584	282.00
48.0754	289.00
48.0924	269.00
48.1094	275.00
48.1264	270.00
48.1434	225.00
48.1604	213.00
48.1774	273.00
48.1944	275.00
48.2114	317.00
48.2284	314.00
48.2454	325.00
48.2624	330.00
48.2794	315.00
48.2964	251.00
48.3134	242.00
48.3304	278.00
48.3474	307.00
48.3644	274.00
48.3814	299.00
48.3984	308.00
48.4154	276.00
48.4324	271.00
48.4494	223.00
48.4664	257.00
48.4834	287.00
48.5004	291.00
48.5174	236.00
48.5344	259.00
48.5514	253.00
48.5684	255.00
48.5854	209.00
48.6024	256.00
48.6194	271.00
48.6364	276.00
48.6534	205.00
48.6704	221.00
48.6874	276.00
48.7044	252.00
48.7214	300.00
48.7384	297.00
48.7554	251.00
48.7724	283.00
48.7894	270.00
48.8064	343.00
48.8234	242.00
48.8404	271.00
48.8574	307.00
48.8744	304.00
48.8914	318.00
48.9084	323.00
48.9254	294.00
48.9424	254.00
48.9594	259.00
48.9764	237.00
48.9934	261.00
49.0104	229.00
49.0274	259.00
49.0444	294.00
49.0614	281.00
49.0784	264.00
49.0954	278.00
49.1124	270.00
49.1294	238.00
49.1464	253.00
49.1634	269.00
49.1804	276.00
49.1974	270.00
49.2144	235.00
49.2314	291.00
49.2484	294.00
49.2654	256.00
49.2824	231.00
49.2994	225.00
49.3164	261.00
49.3334	309.00
49.3504	311.00
49.3674	267.00
49.3844	262.00
49.4014	284.00
49.4184	273.00
49.4354	287.00
49.4524	239.00
49.4694	249.00
49.4864	196.00
49.5034	290.00
49.5204	302.00
49.5374	323.00
49.5544	307.00
49.5714	272.00
49.5884	276.00
49.6054	248.00
49.6224	191.00
49.6394	269.00
49.6564	248.00
49.6734	285.00
49.6904	330.00
49.7074	333.00
49.7244	292.00
49.7414	252.00
49.7584	262.00
49.7754	255.00
49.7924	268.00
49.8094	278.00
49.8264	325.00
49.8434	270.00
49.8604	334.00
49.8774	303.00
49.8944	259.00
49.9114	294.00
49.9284	325.00
49.9454	284.00
49.9624	259.00
49.9794	278.00
49.9964	252.00
50.0134	240.00
50.0304	232.00
50.0474	282.00
50.0644	332.00
50.0814	298.00
50.0984	257.00
50.1154	297.00
50.1324	294.00
50.1494	266.00
50.1664	240.00
50.1834	244.00
50.2004	289.00
50.2174	303.00
50.2344	336.00
50.2514	310.00
50.2684	286.00
50.2854	264.00
50.3024	265.00
50.3194	366.00
50.3364	323.00
50.3534	290.00
50.3704	242.00
50.3874	222.00
50.4044	193.00
50.4214	307.00
50.4384	329.00
50.4554	281.00
50.4724	222.00
50.4894	338.00
50.5064	342.00
50.5234	260.00
50.5404	258.00
50.5574	239.00
50.5744	286.00
50.5914	224.00
50.6084	360.00
50.6254	365.00
50.6424	266.00
50.6594	252.00
50.6764	231.00
50.6934	338.00
50.7104	306.00
50.7274	304.00
50.7444	287.00
50.7614	256.00
50.7784	314.00
50.7954	282.00
50.8124	282.00
50.8294	322.00
50.8464	336.00
50.8634	297.00
50.8804	215.00
50.8974	265.00
50.9144	272.00
50.9314	332.00
50.9484	317.00
50.9654	239.00
50.9824	230.00
50.9994	265.00
51.0164	254.00
51.0334	247.00
51.0504	265.00
51.0674	222.00
51.0844	213.00
51.1014	247.00
51.1184	298.00
51.1354	292.00
51.1524	313.00
51.1694	276.00
51.1864	309.00
51.2034	315.00
51.2204	349.00
51.2374	280.00
51.2544	243.00
51.2714	304.00
51.2884	247.00
51.3054	271.00
51.3224	290.00
51.3394	293.00
51.3564	289.00
51.3734	285.00
51.3904	314.00
51.4074	253.00
51.4244	323.00
51.4414	297.00
51.4584	253.00
51.4754	208.00
51.4924	335.00
51.5094	281.00
51.5264	316.00
51.5434	295.00
51.5604	294.00
51.5774	339.00
51.5944	194.00
51.6114	299.00
51.6284	351.00
51.6454	352.00
51.6624	337.00
51.6794	353.00
51.6964	309.00
51.7134	325.00
51.7304	321.00
51.7474	291.00
51.7644	299.00
51.7814	310.00
51.7984	260.00
51.8154	330.00
51.8324	332.00
51.8494	281.00
51.8664	291.00
51.8834	391.00
51.9004	367.00
51.9174	314.00
51.9344	308.00
51.9514	283.00
51.9684	278.00
51.9854	309.00
52.0024	281.00
52.0194	282.00
52.0364	330.00
52.0534	352.00
52.0704	289.00
52.0874	313.00
52.1044	368.00
52.1214	349.00
52.1384	323.00
52.1554	310.00
52.1724	238.00
52.1894	252.00
52.2064	278.00
52.2234	341.00
52.2404	295.00
52.2574	277.00
52.2744	312.00
52.2914	295.00
52.3084	303.00
52.3254	392.00
52.3424	343.00
52.3594	289.00
52.3764	320.00
52.3934	300.00
52.4104	351.00
52.4274	343.00
52.4444	377.00
52.4614	433.00
52.4784	363.00
52.4954	383.00
52.5124	408.00
52.5294	270.00
52.5464	303.00
52.5634	399.00
52.5804	389.00
52.5974	349.00
52.6144	405.00
52.6314	481.00
52.6484	445.00
52.6654	498.00
52.6824	514.00
52.6994	488.00
52.7164	460.00
52.7334	557.00
52.7504	591.00
52.7674	609.00
52.7844	623.00
52.8014	538.00
52.8184	576.00
52.8354	554.00
52.8524	606.00
52.8694	679.00
52.8864	704.00
52.9034	709.00
52.9204	706.00
52.9374	695.00
52.9544	720.00
52.9714	655.00
52.9884	607.00
53.0054	595.00
53.0224	554.00
53.0394	561.00
53.0564	529.00
53.0734	476.00
53.0904	443.00
53.1074	455.00
53.1244	459.00
53.1414	451.00
53.1584	461.00
53.1754	459.00
53.1924	419.00
53.2094	398.00
53.2264	390.00
53.2434	394.00
53.2604	407.00
53.2774	344.00
53.2944	342.00
53.3114	368.00
53.3284	309.00
53.3454	378.00
53.3624	344.00
53.3794	285.00
53.3964	327.00
53.4134	366.00
53.4304	294.00
53.4474	357.00
53.4644	336.00
53.4814	305.00
53.4984	369.00
53.5154	306.00
53.5324	222.00
53.5494	291.00
53.5664	317.00
53.5834	325.00
53.6004	326.00
53.6174	341.00
53.6344	335.00
53.6514	343.00
53.6684	350.00
53.6854	316.00
53.7024	337.00
53.7194	281.00
53.7364	310.00
53.7534	298.00
53.7704	286.00
53.7874	301.00
53.8044	326.00
53.8214	308.00
53.8384	281.00
53.8554	302.00
53.8724	329.00
53.8894	272.00
53.9064	293.00
53.9234	258.00
53.9404	286.00
53.9574	307.00
53.9744	262.00
53.9914	272.00
54.0084	290.00
54.0254	253.00
54.0424	281.00
54.0594	284.00
54.0764	291.00
54.0934	282.00
54.1104	293.00
54.1274	282.00
54.1444	300.00
54.1614	304.00
54.1784	300.00
54.1954	300.00
54.2124	309.00
54.2294	289.00
54.2464	296.00
54.2634	301.00
54.2804	300.00
54.2974	287.00
54.3144	295.00
54.3314	299.00
54.3484	280.00
54.3654	228.00
54.3824	236.00
54.3994	324.00
54.4164	333.00
54.4334	264.00
54.4504	303.00
54.4674	338.00
54.4844	285.00
54.5014	313.00
54.5184	258.00
54.5354	308.00
54.5524	306.00
54.5694	260.00
54.5864	313.00
54.6034	276.00
54.6204	255.00
54.6374	230.00
54.6544	256.00
54.6714	294.00
54.6884	265.00
54.7054	218.00
54.7224	209.00
54.7394	348.00
54.7564	324.00
54.7734	304.00
54.7904	291.00
54.8074	268.00
54.8244	245.00
54.8414	245.00
54.8584	249.00
54.8754	252.00
54.8924	247.00
54.9094	272.00
54.9264	240.00
54.9434	222.00
54.9604	309.00
54.9774	341.00
54.9944	300.00
55.0114	286.00
55.0284	297.00
55.0454	280.00
55.0624	242.00
55.0794	291.00
55.0964	282.00
55.1134	278.00
55.1304	216.00
55.1474	256.00
55.1644	250.00
55.1814	304.00
55.1984	291.00
55.2154	241.00
55.2324	315.00
55.2494	310.00
55.2664	330.00
55.2834	329.00
55.3004	316.00
55.3174	366.00
55.3344	347.00
55.3514	269.00
55.3684	276.00
55.3854	320.00
55.4024	310.00
55.4194	276.00
55.4364	341.00
55.4534	362.00
55.4704	418.00
55.4874	373.00
55.5044	321.00
55.5214	298.00
55.5384	379.00
55.5554	336.00
55.5724	282.00
55.5894	293.00
55.6064	310.00
55.6234	306.00
55.6404	281.00
55.6574	275.00
55.6744	326.00
55.6914	349.00
55.7084	314.00
55.7254	306.00
55.7424	281.00
55.7594	340.00
55.7764	315.00
55.7934	281.00
55.8104	293.00
55.8274	275.00
55.8444	247.00
55.8614	279.00
55.8784	368.00
55.8954	344.00
55.9124	303.00
55.9294	341.00
55.9464	286.00
55.9634	313.00
55.9804	316.00
55.9974	245.00
56.0144	243.00
56.0314	259.00
56.0484	280.00
56.0654	297.00
56.0824	327.00
56.0994	291.00
56.1164	240.00
56.1334	275.00
56.1504	273.00
56.1674	277.00
56.1844	197.00
56.2014	229.00
56.2184	225.00
56.2354	250.00
56.2524	242.00
56.2694	323.00
56.2864	303.00
56.3034	310.00
56.3204	246.00
56.3374	306.00
56.3544	240.00
56.3714	318.00
56.3884	242.00
56.4054	316.00
56.4224	257.00
56.4394	331.00
56.4564	336.00
56.4734	251.00
56.4904	209.00
56.5074	310.00
56.5244	278.00
56.5414	291.00
56.5584	339.00
56.5754	272.00
56.5924	265.00
56.6094	325.00
56.6264	276.00
56.6434	289.00
56.6604	260.00
56.6774	247.00
56.6944	246.00
56.7114	237.00
56.7284	215.00
56.7454	214.00
56.7624	286.00
56.7794	363.00
56.7964	311.00
56.8134	282.00
56.8304	324.00
56.8474	325.00
56.8644	294.00
56.8814	273.00
56.8984	243.00
56.9154	217.00
56.9324	250.00
56.9494	299.00
56.9664	311.00
56.9834	265.00
57.0004	250.00
57.0174	279.00
57.0344	302.00
57.0514	289.00
57.0684	289.00
57.0854	274.00
57.1024	300.00
57.1194	300.00
57.1364	243.00
57.1534	268.00
57.1704	265.00
57.1874	256.00
57.2044	244.00
57.2214	300.00
57.2384	312.00
57.2554	323.00
57.2724	240.00
57.2894	238.00
57.3064	214.00
57.3234	242.00
57.3404	237.00
57.3574	251.00
57.3744	268.00
57.3914	334.00
57.4084	312.00
57.4254	312.00
57.4424	356.00
57.4594	265.00
57.4764	275.00
57.4934	251.00
57.5104	248.00
57.5274	284.00
57.5444	237.00
57.5614	286.00
57.5784	204.00
57.5954	236.00
57.6124	251.00
57.6294	280.00
57.6464	295.00
57.6634	295.00
57.6804	266.00
57.6974	257.00
57.7144	229.00
57.7314	238.00
57.7484	230.00
57.7654	261.00
57.7824	315.00
57.7994	266.00
57.8164	269.00
57.8334	254.00
57.8504	301.00
57.8674	308.00
57.8844	292.00
57.9014	267.00
57.9184	248.00
57.9354	247.00
57.9524	260.00
57.9694	294.00
57.9864	318.00
58.0034	259.00
58.0204	226.00
58.0374	279.00
58.0544	317.00
58.0714	238.00
58.0884	299.00
58.1054	299.00
58.1224	267.00
58.1394	272.00
58.1564	339.00
58.1734	281.00
58.1904	272.00
58.2074	161.00
58.2244	239.00
58.2414	330.00
58.2584	245.00
58.2754	258.00
58.2924	217.00
58.3094	254.00
58.3264	230.00
58.3434	279.00
58.3604	277.00
58.3774	305.00
58.3944	281.00
58.4114	294.00
58.4284	193.00
58.4454	306.00
58.4624	232.00
58.4794	327.00
58.4964	277.00
58.5134	231.00
58.5304	218.00
58.5474	213.00
58.5644	289.00
58.5814	262.00
58.5984	279.00
58.6154	245.00
58.6324	320.00
58.6494	283.00
58.6664	196.00
58.6834	253.00
58.7004	275.00
58.7174	230.00
58.7344	261.00
58.7514	304.00
58.7684	300.00
58.7854	243.00
58.8024	260.00
58.8194	255.00
58.8364	252.00
58.8534	288.00
58.8704	273.00
58.8874	276.00
58.9044	297.00
58.9214	286.00
58.9384	272.00
58.9554	224.00
58.9724	189.00
58.9894	223.00
59.0064	267.00
59.0234	256.00
59.0404	254.00
59.0574	264.00
59.0744	265.00
59.0914	228.00
59.1084	249.00
59.1254	298.00
59.1424	226.00
59.1594	274.00
59.1764	267.00
59.1934	239.00
59.2104	283.00
59.2274	289.00
59.2444	309.00
59.2614	302.00
59.2784	290.00
59.2954	273.00
59.3124	248.00
59.3294	276.00
59.3464	159.00
59.3634	294.00
59.3804	262.00
59.3974	248.00
59.4144	215.00
59.4314	294.00
59.4484	301.00
59.4654	302.00
59.4824	297.00
59.4994	260.00
59.5164	295.00
59.5334	239.00
59.5504	251.00
59.5674	238.00
59.5844	277.00
59.6014	243.00
59.6184	301.00
59.6354	316.00
59.6524	282.00
59.6694	273.00
59.6864	319.00
59.7034	290.00
59.7204	234.00
59.7374	260.00
59.7544	302.00
59.7714	277.00
59.7884	249.00
59.8054	290.00
59.8224	265.00
59.8394	298.00
59.8564	325.00
59.8734	272.00
59.8904	271.00
59.9074	270.00
59.9244	250.00
59.9414	229.00
59.9584	212.00
59.9754	226.00
59.9924	266.00
60.0094	261.00
60.0264	281.00
60.0434	264.00
60.0604	264.00
60.0774	239.00
60.0944	209.00
60.1114	228.00
60.1284	288.00
60.1454	303.00
60.1624	244.00
60.1794	210.00
60.1964	213.00
60.2134	209.00
60.2304	300.00
60.2474	266.00
60.2644	294.00
60.2814	297.00
60.2984	274.00
60.3154	257.00
60.3324	290.00
60.3494	250.00
60.3664	228.00
60.3834	208.00
60.4004	176.00
60.4174	218.00
60.4344	201.00
60.4514	235.00
60.4684	292.00
60.4854	280.00
60.5024	274.00
60.5194	305.00
60.5364	392.00
60.5534	369.00
60.5704	307.00
60.5874	290.00
60.6044	257.00
60.6214	252.00
60.6384	253.00
60.6554	171.00
60.6724	256.00
60.6894	252.00
60.7064	257.00
60.7234	279.00
60.7404	272.00
60.7574	250.00
60.7744	231.00
60.7914	221.00
60.8084	240.00
60.8254	234.00
60.8424	247.00
60.8594	262.00
60.8764	250.00
60.8934	271.00
60.9104	259.00
60.9274	231.00
60.9444	232.00
60.9614	192.00
60.9784	218.00
60.9954	266.00
61.0124	221.00
61.0294	269.00
61.0464	260.00
61.0634	212.00
61.0804	225.00
61.0974	290.00
61.1144	242.00
61.1314	269.00
61.1484	280.00
61.1654	256.00
61.1824	333.00
61.1994	277.00
61.2164	252.00
61.2334	231.00
61.2504	199.00
61.2674	253.00
61.2844	256.00
61.3014	286.00
61.3184	232.00
61.3354	272.00
61.3524	280.00
61.3694	295.00
61.3864	242.00
61.4034	233.00
61.4204	291.00
61.4374	277.00
61.4544	275.00
61.4714	352.00
61.4884	248.00
61.5054	200.00
61.5224	280.00
61.5394	249.00
61.5564	211.00
61.5734	291.00
61.5904	286.00
61.6074	245.00
61.6244	257.00
61.6414	227.00
61.6584	275.00
61.6754	288.00
61.6924	249.00
61.7094	244.00
61.7264	235.00
61.7434	246.00
61.7604	245.00
61.7774	237.00
61.7944	259.00
61.8114	224.00
61.8284	241.00
61.8454	282.00
61.8624	307.00
61.8794	271.00
61.8964	267.00
61.9134	304.00
61.9304	265.00
61.9474	279.00
61.9644	269.00
61.9814	263.00
61.9984	274.00
62.0154	228.00
62.0324	191.00
62.0494	283.00
62.0664	271.00
62.0834	267.00
62.1004	235.00
62.1174	233.00
62.1344	235.00
62.1514	216.00
62.1684	212.00
62.1854	276.00
62.2024	263.00
62.2194	189.00
62.2364	269.00
62.2534	284.00
62.2704	183.00
62.2874	266.00
62.3044	260.00
62.3214	254.00
62.3384	210.00
62.3554	258.00
62.3724	302.00
62.3894	195.00
62.4064	242.00
62.4234	267.00
62.4404	293.00
62.4574	243.00
62.4744	188.00
62.4914	293.00
62.5084	312.00
62.5254	279.00
62.5424	241.00
62.5594	244.00
62.5764	292.00
62.5934	367.00
62.6104	240.00
62.6274	272.00
62.6444	207.00
62.6614	216.00
62.6784	267.00
62.6954	293.00
62.7124	288.00
62.7294	255.00
62.7464	153.00
62.7634	224.00
62.7804	253.00
62.7974	206.00
62.8144	219.00
62.8314	252.00
62.8484	252.00
62.8654	237.00
62.8824	203.00
62.8994	205.00
62.9164	265.00
62.9334	265.00
62.9504	238.00
62.9674	221.00
62.9844	277.00
63.0014	294.00
63.0184	240.00
63.0354	242.00
63.0524	252.00
63.0694	270.00
63.0864	248.00
63.1034	303.00
63.1204	274.00
63.1374	279.00
63.1544	277.00
63.1714	262.00
63.1884	189.00
63.2054	228.00
63.2224	321.00
63.2394	277.00
63.2564	242.00
63.2734	305.00
63.2904	378.00
63.3074	266.00
63.3244	291.00
63.3414	229.00
63.3584	247.00
63.3754	300.00
63.3924	247.00
63.4094	267.00
63.4264	221.00
63.4434	337.00
63.4604	256.00
63.4774	209.00
63.4944	283.00
63.5114	335.00
63.5284	264.00
63.5454	251.00
63.5624	249.00
63.5794	272.00
63.5964	170.00
63.6134	255.00
63.6304	279.00
63.6474	238.00
63.6644	244.00
63.6814	244.00
63.6984	252.00
63.7154	277.00
63.7324	262.00
63.7494	251.00
63.7664	261.00
63.7834	267.00
63.8004	278.00
63.8174	268.00
63.8344	278.00
63.8514	295.00
63.8684	294.00
63.8854	276.00
63.9024	225.00
63.9194	207.00
63.9364	229.00
63.9534	299.00
63.9704	279.00
63.9874	256.00
64.0044	242.00
64.0214	281.00
64.0384	276.00
64.0554	256.00
64.0724	296.00
64.0894	293.00
64.1064	283.00
64.1234	245.00
64.1404	293.00
64.1574	260.00
64.1744	263.00
64.1914	264.00
64.2084	203.00
64.2254	276.00
64.2424	212.00
64.2594	259.00
64.2764	269.00
64.2934	331.00
64.3104	356.00
64.3274	319.00
64.3444	378.00
64.3614	296.00
64.3784	374.00
64.3954	332.00
64.4124	355.00
64.4294	300.00
64.4464	384.00
64.4634	386.00
64.4804	433.00
64.4974	343.00
64.5144	418.00
64.5314	456.00
64.5484	487.00
64.5654	465.00
64.5824	443.00
64.5994	524.00
64.6164	542.00
64.6334	482.00
64.6504	497.00
64.6674	606.00
64.6844	589.00
64.7014	641.00
64.7184	692.00
64.7354	712.00
64.7524	731.00
64.7694	720.00
64.7864	703.00
64.8034	716.00
64.8204	699.00
64.8374	651.00
64.8544	686.00
64.8714	717.00
64.8884	727.00
64.9054	693.00
64.9224	711.00
64.9394	664.00
64.9564	661.00
64.9734	706.00
64.9904	599.00
65.0074	582.00
65.0244	573.00
65.0414	474.00
65.0584	473.00
65.0754	498.00
65.0924	458.00
65.1094	455.00
65.1264	445.00
65.1434	441.00
65.1604	424.00
65.1774	314.00
65.1944	308.00
65.2114	327.00
65.2284	385.00
65.2454	318.00
65.2624	440.00
65.2794	350.00
65.2964	323.00
65.3134	389.00
65.3304	372.00
65.3474	313.00
65.3644	301.00
65.3814	313.00
65.3984	309.00
65.4154	316.00
65.4324	310.00
65.4494	324.00
65.4664	360.00
65.4834	304.00
65.5004	303.00
65.5174	259.00
65.5344	276.00
65.5514	300.00
65.5684	315.00
65.5854	274.00
65.6024	231.00
65.6194	254.00
65.6364	270.00
65.6534	243.00
65.6704	234.00
65.6874	222.00
65.7044	173.00
65.7214	198.00
65.7384	214.00
65.7554	258.00
65.7724	293.00
65.7894	321.00
65.8064	281.00
65.8234	262.00
65.8404	228.00
65.8574	245.00
65.8744	249.00
65.8914	243.00
65.9084	249.00
65.9254	235.00
65.9424	214.00
65.9594	216.00
65.9764	281.00
65.9934	257.00
66.0104	223.00
66.0274	192.00
66.0444	224.00
66.0614	212.00
66.0784	275.00
66.0954	210.00
66.1124	172.00
66.1294	172.00
66.1464	243.00
66.1634	267.00
66.1804	230.00
66.1974	220.00
66.2144	205.00
66.2314	247.00
66.2484	315.00
66.2654	207.00
66.2824	280.00
66.2994	235.00
66.3164	198.00
66.3334	175.00
66.3504	280.00
66.3674	347.00
66.3844	245.00
66.4014	193.00
66.4184	204.00
66.4354	266.00
66.4524	310.00
66.4694	251.00
66.4864	235.00
66.5034	264.00
66.5204	291.00
66.5374	270.00
66.5544	272.00
66.5714	266.00
66.5884	273.00
66.6054	278.00
66.6224	244.00
66.6394	253.00
66.6564	249.00
66.6734	248.00
66.6904	285.00
66.7074	281.00
66.7244	273.00
66.7414	248.00
66.7584	187.00
66.7754	190.00
66.7924	218.00
66.8094	223.00
66.8264	229.00
66.8434	211.00
66.8604	220.00
66.8774	255.00
66.8944	248.00
66.9114	219.00
66.9284	241.00
66.9454	283.00
66.9624	306.00
66.9794	238.00
66.9964	202.00
67.0134	199.00
67.0304	244.00
67.0474	226.00
67.0644	259.00
67.0814	246.00
67.0984	232.00
67.1154	294.00
67.1324	262.00
67.1494	252.00
67.1664	205.00
67.1834	265.00
67.2004	208.00
67.2174	270.00
67.2344	277.00
67.2514	203.00
67.2684	241.00
67.2854	247.00
67.3024	230.00
67.3194	181.00
67.3364	204.00
67.3534	176.00
67.3704	213.00
67.3874	268.00
67.4044	290.00
67.4214	248.00
67.4384	174.00
67.4554	220.00
67.4724	238.00
67.4894	262.00
67.5064	268.00
67.5234	267.00
67.5404	226.00
67.5574	238.00
67.5744	221.00
67.5914	244.00
67.6084	278.00
67.6254	228.00
67.6424	206.00
67.6594	214.00
67.6764	247.00
67.6934	254.00
67.7104	223.00
67.7274	256.00
67.7444	212.00
67.7614	208.00
67.7784	200.00
67.7954	210.00
67.8124	236.00
67.8294	240.00
67.8464	273.00
67.8634	227.00
67.8804	225.00
67.8974	274.00
67.9144	215.00
67.9314	161.00
67.9484	210.00
67.9654	219.00
67.9824	219.00
67.9994	214.00
68.0164	227.00
68.0334	294.00
68.0504	279.00
68.0674	233.00
68.0844	169.00
68.1014	162.00
68.1184	249.00
68.1354	214.00
68.1524	198.00
68.1694	173.00
68.1864	252.00
68.2034	260.00
68.2204	255.00
68.2374	227.00
68.2544	252.00
68.2714	284.00
68.2884	185.00
68.3054	196.00
68.3224	205.00
68.3394	171.00
68.3564	250.00
68.3734	199.00
68.3904	249.00
68.4074	260.00
68.4244	237.00
68.4414	231.00
68.4584	234.00
68.4754	199.00
68.4924	215.00
68.5094	248.00
68.5264	268.00
68.5434	266.00
68.5604	217.00
68.5774	250.00
68.5944	262.00
68.6114	284.00
68.6284	249.00
68.6454	256.00
68.6624	234.00
68.6794	205.00
68.6964	223.00
68.7134	235.00
68.7304	213.00
68.7474	215.00
68.7644	221.00
68.7814	236.00
68.7984	226.00
68.8154	216.00
68.8324	246.00
68.8494	257.00
68.8664	248.00
68.8834	238.00
68.9004	185.00
68.9174	184.00
68.9344	183.00
68.9514	261.00
68.9684	259.00
68.9854	206.00
69.0024	232.00
69.0194	258.00
69.0364	265.00
69.0534	273.00
69.0704	236.00
69.0874	231.00
69.1044	274.00
69.1214	173.00
69.1384	143.00
69.1554	258.00
69.1724	261.00
69.1894	239.00
69.2064	240.00
69.2234	268.00
69.2404	245.00
69.2574	190.00
69.2744	173.00
69.2914	224.00
69.3084	252.00
69.3254	222.00
69.3424	210.00
69.3594	192.00
69.3764	185.00
69.3934	162.00
69.4104	204.00
69.4274	233.00
69.4444	186.00
69.4614	219.00
69.4784	239.00
69.4954	221.00
69.5124	226.00
69.5294	222.00
69.5464	215.00
69.5634	202.00
69.5804	166.00
69.5974	219.00
69.6144	213.00
69.6314	211.00
69.6484	252.00
69.6654	237.00
69.6824	241.00
69.6994	299.00
69.7164	233.00
69.7334	189.00
69.7504	217.00
69.7674	213.00
69.7844	226.00
69.8014	242.00
69.8184	251.00
69.8354	245.00
69.8524	249.00
69.8694	284.00
69.8864	210.00
69.9034	203.00
69.9204	220.00
69.9374	200.00
69.9544	207.00
69.9714	238.00
69.9884	250.00
